839
839
839
839
839
839
839
840
840
836
836
833
830
830
828
828
831
834
836
842
839
838
835
834
832
832
831
830
831
830
827
834
834
834
838
839
836
834
830
833
832
832
835
838
839
836
836
836
833
834
828
832
831
835
834
835
835
833
832
833
830
828
830
829
831
834
834
837
838
838
836
837
834
830
831
831
830
830
832
838
834
832
829
833
832
832
832
830
833
836
836
838
839
838
839
837
832
834
832
833
835
836
839
840
839
840
839
837
837
837
832
835
843
847
853
859
859
861
859
862
857
857
857
867
868
872
874
872
875
874
869
868
864
859
855
856
857
859
857
854
851
845
840
838
836
835
833
828
830
830
830
837
831
832
832
831
827
827
826
825
829
827
830
833
835
835
833
834
830
827
829
834
843
858
874
900
924
956
989
1017
1030
1026
1002
958
908
851
793
741
699
673
672
688
711
735
758
775
791
804
821
836
847
852
851
850
847
846
843
842
846
854
855
857
855
857
856
854
858
855
855
853
860
862
862
866
867
867
869
866
868
864
867
867
868
872
873
878
880
880
879
878
879
879
880
876
879
883
887
892
888
891
893
895
894
899
898
901
906
910
912
918
921
923
927
930
928
934
934
936
945
948
957
963
963
966
969
969
974
973
974
976
980
984
985
989
990
990
989
988
985
985
978
977
971
971
968
964
957
952
944
938
930
923
916
911
906
902
898
894
891
886
877
874
869
865
866
860
862
862
862
861
861
860
859
855
851
850
846
847
849
850
850
854
852
853
853
852
850
850
850
851
851
854
856
855
860
852
850
852
851
850
851
852
855
856
860
860
860
858
859
857
854
850
849
849
848
849
849
851
853
853
851
848
849
846
845
844
846
845
847
847
847
846
844
841
841
840
837
840
839
843
844
845
843
841
838
838
834
835
829
833
838
837
842
843
845
842
843
841
841
837
838
837
838
840
841
843
840
840
839
841
838
836
835
834
838
840
840
842
840
841
840
836
834
835
836
835
835
836
839
838
840
839
837
837
835
835
829
829
832
837
839
841
839
839
840
839
837
837
834
836
837
839
839
841
840
839
840
837
835
833
833
833
834
838
838
841
840
838
835
833
830
828
832
829
835
836
837
841
840
838
839
836
836
837
835
836
837
839
840
840
841
838
840
840
838
836
835
837
838
839
841
842
843
843
841
837
837
835
838
843
847
852
855
861
862
864
863
858
860
859
864
865
867
872
877
880
879
876
874
870
864
862
860
862
859
859
855
856
849
847
840
839
835
834
834
833
835
835
836
839
838
835
835
834
832
828
830
830
830
832
832
835
833
834
833
831
832
832
833
835
840
842
852
867
881
904
926
953
979
1004
1015
1006
982
938
886
830
776
726
691
678
684
704
726
749
769
784
800
817
828
838
847
846
846
850
845
842
845
850
853
856
860
858
860
857
855
856
855
857
858
858
862
866
866
866
866
864
864
864
864
862
867
868
869
873
873
872
873
873
872
870
873
871
873
875
878
883
876
882
883
881
882
882
883
886
891
895
902
905
906
905
908
909
911
912
914
918
921
928
931
938
943
949
946
948
951
955
955
961
964
968
974
974
976
978
979
980
977
977
978
979
975
976
974
974
972
970
963
957
949
941
934
928
924
923
914
909
907
901
895
888
880
874
869
869
864
862
862
861
860
856
851
849
847
844
846
845
844
847
847
847
846
848
847
845
842
843
842
845
846
846
848
851
851
851
853
847
850
848
844
845
847
850
850
853
854
854
853
851
850
849
845
843
845
845
844
849
847
847
847
844
842
841
838
836
837
838
841
842
840
843
839
835
836
832
829
831
832
833
833
830
835
835
835
831
830
828
825
822
820
825
826
830
830
830
831
826
825
823
821
824
825
826
826
826
824
825
824
824
823
820
817
818
819
820
822
825
823
824
822
818
819
818
815
815
819
817
820
823
823
823
822
820
821
817
816
815
814
818
819
821
820
821
822
816
817
814
814
814
815
815
820
824
824
821
822
822
820
817
812
812
818
816
818
822
821
820
824
822
821
818
818
817
817
817
818
819
824
823
819
818
819
815
814
816
816
822
822
823
822
822
820
820
822
820
819
816
820
821
823
826
825
828
828
827
824
824
825
827
831
833
838
839
839
840
838
840
844
845
847
849
849
855
859
860
863
862
860
856
851
846
844
841
843
845
842
841
836
832
829
823
823
822
822
818
817
816
821
821
819
820
819
815
815
813
812
812
812
815
816
817
821
822
823
817
820
817
817
820
828
842
858
881
904
932
957
981
991
984
957
861
805
749
703
665
643
639
652
672
695
714
731
745
762
779
793
809
820
827
825
826
824
823
823
826
826
829
832
836
840
839
837
837
838
835
840
838
839
842
846
848
850
850
845
846
843
843
845
845
849
849
854
853
856
855
850
851
851
853
853
857
860
865
862
866
867
868
867
865
866
870
870
875
877
879
885
892
895
894
897
900
901
902
907
911
917
922
926
930
935
938
938
938
941
944
946
949
953
958
965
967
967
971
968
968
967
961
965
962
965
964
963
960
955
950
944
938
928
919
912
905
901
896
893
889
882
878
872
869
864
858
855
852
851
850
852
851
848
846
842
841
837
838
838
838
841
841
843
843
842
844
837
837
832
834
836
838
839
842
845
845
849
847
845
845
842
841
842
845
843
844
847
848
849
847
846
847
845
842
844
843
845
846
846
848
849
843
844
842
838
839
837
838
837
840
843
844
843
843
837
836
834
833
833
831
835
837
838
837
835
837
835
836
831
830
831
832
833
833
833
835
835
834
830
832
830
830
829
831
831
833
833
833
833
831
831
829
828
824
827
829
829
833
834
834
833
831
830
832
831
828
829
829
829
831
834
832
830
828
835
831
828
826
827
829
828
831
832
834
833
833
833
830
830
831
828
830
832
833
834
836
835
835
830
831
830
829
829
829
832
834
834
834
838
839
837
836
834
832
832
833
830
832
834
833
835
835
836
835
831
832
832
834
834
834
838
838
838
838
836
837
832
833
834
835
835
838
839
842
841
840
840
842
845
843
849
849
855
858
857
861
862
864
863
868
866
868
869
870
870
870
867
862
864
862
861
858
855
855
849
844
843
842
839
840
839
840
841
836
833
829
830
830
833
833
833
832
832
837
834
832
831
831
830
831
835
835
837
839
838
840
839
837
843
852
865
884
909
937
971
994
1017
1020
1012
983
939
884
828
775
729
700
692
701
724
749
771
791
803
815
827
841
843
850
857
857
856
853
850
853
855
853
857
859
860
862
863
865
865
867
867
865
863
863
863
860
866
867
872
874
876
875
876
871
871
868
872
872
875
877
879
880
883
883
882
882
883
877
883
885
887
891
894
895
898
897
897
895
896
901
904
906
908
914
917
921
922
925
928
929
931
933
936
937
942
949
953
958
963
964
964
967
965
972
974
974
981
985
984
989
989
994
992
991
990
987
987
985
986
982
981
978
973
964
958
949
944
938
935
929
923
920
914
913
908
903
894
887
883
879
876
876
874
872
871
872
869
867
866
864
862
859
858
859
859
861
863
861
863
860
860
858
855
855
855
854
856
861
864
864
865
866
865
864
861
860
853
856
858
864
867
868
867
867
866
863
861
858
856
859
861
861
862
861
860
857
860
856
853
853
851
854
853
855
856
854
854
853
849
846
847
845
845
845
847
843
848
847
850
847
848
846
843
843
842
844
841
843
843
847
845
844
844
843
842
842
842
843
838
843
844
844
843
843
837
839
840
837
836
839
837
842
842
841
840
840
840
838
840
836
835
836
837
835
837
839
837
840
837
837
837
835
836
834
839
837
839
839
839
839
835
835
835
832
833
835
836
840
841
842
842
842
838
839
838
834
833
837
840
836
839
841
842
842
839
838
834
834
832
834
837
836
838
838
840
838
839
839
838
836
836
840
841
839
842
841
842
844
842
838
839
835
834
835
837
841
843
844
845
846
845
844
839
837
839
840
840
840
841
845
845
845
844
844
843
844
847
847
851
854
858
858
862
858
860
860
860
862
865
867
873
878
878
882
884
882
875
874
867
860
861
860
862
862
860
860
857
853
845
842
841
839
839
839
841
838
840
840
837
834
831
831
825
828
827
829
833
830
836
839
836
832
834
834
829
831
832
832
839
844
852
866
883
903
925
953
978
995
1002
988
962
918
870
822
768
725
690
682
685
704
726
748
773
793
805
821
832
844
846
849
849
847
844
841
843
848
854
856
857
855
857
859
855
857
854
856
856
859
858
861
863
860
861
860
859
858
860
863
866
867
870
869
871
871
870
871
865
866
865
865
871
874
873
878
877
879
880
879
878
878
879
877
883
887
889
894
897
897
899
899
902
901
904
909
912
915
919
927
929
932
939
939
943
938
945
949
951
955
965
971
973
975
974
972
972
970
972
972
973
972
970
972
971
966
960
955
946
943
933
926
922
918
910
904
900
894
886
881
873
871
866
862
861
860
862
860
856
853
852
848
847
846
845
845
845
846
848
847
847
850
848
845
844
846
843
841
841
847
845
849
844
841
842
842
843
842
842
839
842
845
845
846
848
845
846
844
843
841
839
839
842
845
845
850
847
847
843
840
838
840
837
835
837
833
838
840
838
835
834
832
828
829
829
826
830
831
832
835
833
834
827
824
821
824
824
826
825
828
829
830
832
831
827
824
823
822
821
821
822
824
826
826
828
829
827
828
825
823
819
819
823
822
826
826
828
824
823
821
818
819
820
819
822
822
825
824
820
820
817
819
818
813
813
813
817
822
823
824
822
824
823
818
819
817
817
818
819
819
821
820
820
822
821
817
815
816
818
816
816
818
820
822
825
824
823
817
812
815
815
816
819
818
822
824
823
821
823
820
819
821
818
820
819
820
819
824
822
822
825
823
822
822
819
818
821
820
823
826
825
827
822
823
823
820
818
821
823
826
830
830
831
830
836
839
839
838
836
836
837
841
845
850
852
858
856
856
855
856
853
851
850
851
852
851
849
849
845
838
832
823
822
821
816
819
822
821
823
822
821
818
816
815
812
812
811
811
815
818
818
821
820
818
818
818
816
816
817
819
821
824
827
825
829
832
847
864
882
904
935
964
988
998
985
952
904
847
787
733
684
652
640
649
672
700
723
741
756
766
778
791
805
816
826
832
835
837
836
836
835
837
835
838
837
838
842
846
847
850
847
849
849
848
847
848
846
849
850
853
855
860
859
861
858
857
851
852
855
855
858
861
865
863
864
866
869
868
869
869
867
870
875
876
881
883
884
884
887
885
886
891
894
895
900
903
907
913
916
920
925
927
925
929
928
933
940
944
946
951
949
953
951
957
959
960
963
962
965
965
965
967
968
964
963
960
963
957
956
954
951
950
948
946
941
932
924
914
911
905
900
893
888
887
884
879
873
869
864
859
857
855
851
852
851
849
848
851
848
844
843
841
842
840
840
841
844
844
845
846
845
845
844
844
842
841
839
842
841
844
847
851
849
849
847
844
844
844
842
839
846
845
849
847
846
845
846
844
842
841
838
843
841
844
845
846
846
845
844
838
837
835
834
831
832
834
837
843
840
840
838
834
834
831
828
831
832
831
836
836
835
836
834
830
830
828
826
828
830
830
832
834
833
833
829
826
826
825
825
826
826
828
828
828
830
831
830
828
826
828
827
824
822
827
829
830
829
828
825
826
823
826
823
822
828
828
828
831
831
830
828
828
827
828
824
826
826
827
832
835
833
829
828
829
827
826
823
822
823
826
828
830
829
825
828
828
826
825
825
826
827
828
830
831
830
827
828
826
824
824
825
825
827
831
832
835
835
834
832
831
828
829
826
828
828
827
830
828
832
832
834
829
829
828
829
827
829
832
833
833
834
833
832
831
832
830
824
827
832
833
835
836
835
838
835
831
832
831
829
833
834
837
840
844
847
850
852
852
854
852
851
850
854
855
864
868
870
868
866
868
865
865
859
856
858
859
856
857
854
853
851
846
841
837
831
831
830
830
830
834
832
835
833
831
826
822
823
822
822
822
826
828
826
831
831
829
828
827
829
831
834
833
834
838
846
850
863
879
905
931
961
991
1006
1006
983
944
895
839
784
733
695
681
685
704
729
755
776
794
809
821
833
839
842
844
840
841
842
842
843
847
849
851
850
851
848
847
848
849
851
853
854
859
857
855
854
857
856
856
856
853
858
860
862
863
862
865
863
864
866
864
866
864
869
870
872
876
876
875
873
876
877
877
877
879
886
887
889
892
897
900
901
901
902
905
907
908
915
922
927
930
931
932
935
941
943
944
947
952
954
960
963
970
973
976
977
977
975
978
978
978
980
983
982
984
981
980
977
973
963
960
952
946
943
935
933
930
924
914
909
900
889
889
882
874
872
871
868
867
864
861
856
857
851
846
843
845
847
847
847
850
847
847
847
844
842
839
844
843
844
845
846
849
849
845
845
844
842
843
840
841
844
845
847
851
849
851
852
848
849
845
845
847
846
850
850
854
852
849
849
849
843
846
842
842
842
846
846
846
847
847
845
844
838
835
834
834
835
836
839
842
843
837
837
835
831
831
831
831
833
833
834
836
838
836
835
832
833
832
832
832
830
833
832
836
836
838
836
834
829
829
828
830
832
834
837
838
839
839
836
834
835
833
832
832
834
834
834
836
835
834
835
834
833
833
831
832
831
832
834
836
836
835
835
833
832
830
829
833
833
834
835
836
836
836
836
837
830
832
832
832
831
832
837
837
837
838
839
837
836
832
830
830
836
836
837
840
841
840
838
835
833
838
835
833
836
837
840
843
839
836
839
838
836
836
832
831
834
839
838
841
840
838
839
835
837
837
834
834
835
837
842
842
841
840
841
838
839
837
837
835
836
839
840
843
842
838
842
840
837
839
842
843
848
851
857
860
860
862
859
860
861
862
867
871
872
873
873
873
876
873
870
866
863
858
855
856
854
851
850
845
844
845
841
839
837
832
831
834
833
833
836
832
830
830
833
830
829
828
827
826
829
831
831
835
839
840
839
839
835
833
836
838
846
862
877
898
924
953
977
998
1000
983
947
896
839
783
728
691
672
674
690
715
738
760
778
798
811
827
836
843
845
845
843
841
840
839
842
843
848
851
853
857
859
855
858
855
858
856
858
856
858
860
860
860
864
864
864
866
863
864
861
864
864
865
868
870
871
870
870
869
869
870
869
871
872
877
881
882
889
888
888
889
888
890
890
895
898
902
909
912
913
919
922
922
924
926
931
935
938
944
948
953
957
961
962
965
966
966
967
969
977
977
980
985
988
990
987
988
984
985
978
976
977
972
970
968
963
960
952
947
940
932
923
920
913
904
900
897
890
888
882
877
874
870
860
863
862
860
858
860
859
857
853
850
851
850
847
847
847
846
847
849
851
850
851
848
846
847
847
846
846
849
850
853
854
851
850
850
851
849
849
852
852
855
854
857
855
856
853
850
850
848
848
849
851
852
854
855
854
855
851
850
847
844
841
845
844
842
843
847
844
841
845
844
841
835
838
837
837
840
841
841
842
841
842
838
835
832
834
835
838
838
841
842
844
845
843
840
837
828
833
828
831
832
832
837
836
835
838
835
831
830
833
829
834
835
838
839
840
837
835
834
834
833
831
832
833
835
838
839
838
836
832
832
834
829
830
831
831
832
832
835
836
835
837
836
833
831
830
832
834
834
837
838
837
837
835
831
835
831
830
833
834
834
837
842
842
841
839
838
837
828
831
833
831
834
834
832
836
837
836
835
837
832
832
832
832
835
837
839
840
840
839
838
837
835
834
835
835
836
838
841
841
842
840
838
835
835
834
834
836
839
840
841
840
842
842
843
839
840
840
842
843
845
850
855
856
858
859
857
856
858
858
863
868
873
876
879
880
880
878
878
873
871
864
863
864
864
863
862
856
855
849
847
845
843
844
838
839
842
842
844
847
844
841
839
838
833
835
836
839
837
843
843
845
843
844
842
839
839
838
840
841
843
847
851
854
864
874
894
912
936
964
993
1018
1024
1016
989
945
892
828
778
729
696
685
694
710
737
761
778
793
806
818
832
842
849
853
861
858
859
858
862
865
865
871
868
869
868
866
867
866
869
871
874
876
878
876
877
876
874
874
874
877
880
881
885
886
886
881
884
882
881
883
884
886
888
893
892
898
899
900
897
900
899
900
903
904
908
909
912
916
917
920
920
922
925
927
929
931
938
943
949
954
956
960
962
964
967
971
973
975
983
986
991
993
992
993
993
991
991
992
989
989
988
987
985
986
984
979
974
966
962
954
948
943
938
933
931
926
922
916
909
904
899
893
891
887
886
883
885
883
882
877
875
871
866
864
864
865
866
868
872
868
870
866
868
864
860
858
860
861
862
865
865
870
867
869
866
864
864
863
864
863
865
866
867
868
869
869
868
866
866
863
864
867
868
870
871
871
871
871
870
866
864
860
860
860
862
863
864
865
864
864
862
860
857
854
851
852
851
856
859
857
856
856
854
854
854
852
851
852
850
853
855
855
854
850
850
848
846
846
845
841
845
847
851
854
854
853
852
850
844
844
843
847
847
848
850
853
850
851
849
847
843
842
844
843
845
847
852
850
850
851
851
848
847
846
846
848
849
850
847
849
851
850
850
849
845
844
841
841
842
847
848
850
851
851
848
848
848
844
842
842
846
847
851
853
849
850
849
849
844
842
844
843
846
846
850
854
852
853
850
849
848
848
848
848
850
850
848
853
854
852
853
851
848
847
847
846
849
852
849
855
854
853
847
849
850
845
845
846
853
852
854
855
855
855
852
849
845
846
845
846
853
854
855
856
857
853
855
855
853
854
857
860
863
865
869
871
871
876
874
878
877
877
884
887
887
889
891
891
890
886
885
880
876
872
872
871
871
866
865
865
862
860
856
853
852
844
847
850
850
853
851
852
846
848
846
846
845
841
843
844
846
848
849
850
849
848
849
850
849
850
851
855
860
867
880
897
918
942
970
994
1014
1021
1010
981
936
883
831
782
738
713
699
709
729
756
777
795
811
823
835
851
859
865
864
861
863
857
858
860
861
870
872
874
873
872
874
873
871
869
871
873
876
877
880
883
883
883
881
881
881
879
881
883
885
889
888
892
892
894
892
886
889
885
887
886
893
895
897
902
901
903
906
906
907
907
910
913
917
920
925
925
932
932
933
937
938
939
943
947
956
959
964
967
971
978
977
980
982
981
984
987
992
992
995
997
998
996
997
992
989
989
986
984
982
979
973
968
962
957
949
941
937
927
923
915
913
909
905
901
896
889
886
883
878
873
870
871
869
869
869
872
871
870
868
864
864
865
861
861
865
865
866
867
866
866
862
862
862
861
862
862
864
865
870
868
868
867
868
867
864
863
862
864
865
867
870
870
872
871
866
867
864
862
863
863
861
862
861
866
867
863
861
858
855
852
856
853
853
854
856
858
855
854
850
850
847
848
849
851
851
850
851
851
853
854
850
847
845
843
844
843
844
847
848
848
852
849
848
845
841
842
841
840
841
843
845
846
847
846
845
843
839
836
836
836
839
841
843
842
845
842
840
841
839
839
836
838
839
842
843
843
843
840
841
837
836
835
835
836
837
839
838
841
841
841
840
841
838
838
837
835
836
840
838
839
844
844
838
838
834
837
836
838
839
839
841
843
845
841
839
838
836
835
836
836
837
838
837
840
838
841
841
839
840
835
833
832
836
840
844
844
842
842
838
841
838
836
837
834
834
836
842
843
842
843
841
840
837
838
835
837
838
841
839
843
845
844
840
837
835
835
836
839
842
848
851
854
856
859
860
858
855
859
861
863
866
873
878
878
874
877
873
869
865
862
857
858
860
858
857
860
853
848
844
840
836
834
834
835
835
836
837
837
838
835
833
828
829
828
828
828
828
831
832
831
831
833
834
833
830
832
832
833
837
838
842
849
860
876
891
911
936
963
981
993
991
970
935
884
831
781
734
694
669
660
667
692
718
739
755
772
786
799
814
826
829
836
836
835
839
836
842
843
844
846
846
847
847
846
847
846
849
852
855
858
857
855
853
854
851
852
854
856
854
856
860
860
862
864
863
861
862
863
865
865
867
867
867
868
873
875
876
872
874
876
877
878
883
885
889
896
895
896
897
903
901
905
904
911
914
916
919
929
929
935
936
940
944
946
948
956
959
962
966
973
974
979
979
975
976
975
976
972
978
978
980
978
977
970
961
959
949
942
934
927
918
916
910
908
902
895
890
885
877
870
863
863
860
857
858
859
858
853
852
849
847
848
844
845
847
847
849
848
848
847
845
844
840
841
838
837
839
842
843
846
845
847
847
845
842
844
841
845
843
846
848
849
846
848
850
845
846
845
845
846
845
845
850
845
842
844
842
841
840
838
839
839
839
841
840
841
842
839
838
834
834
836
834
833
835
837
835
835
839
837
834
835
834
833
831
829
829
827
831
836
834
834
833
829
832
831
831
829
831
833
835
827
829
832
831
828
827
827
826
828
830
831
832
840
837
837
834
833
831
830
830
829
828
830
834
836
834
832
832
832
830
832
833
830
832
832
834
837
835
835
833
831
831
832
830
832
834
835
837
840
839
838
837
836
834
834
832
831
834
833
837
838
839
838
837
833
835
834
834
833
833
835
838
839
838
838
836
836
834
834
832
834
835
839
840
840
841
840
838
837
835
833
833
834
837
835
837
841
843
842
842
841
839
837
837
835
839
839
841
844
843
843
845
840
843
843
844
844
849
850
856
856
860
859
858
859
859
862
862
868
871
877
879
884
881
882
876
872
869
867
864
862
860
861
860
858
855
848
850
848
844
843
843
841
840
841
844
844
843
842
836
835
835
836
831
832
835
840
842
845
844
843
841
840
843
841
840
840
843
848
855
867
881
902
924
951
983
1008
1020
1017
998
960
912
857
805
758
716
696
694
711
732
756
778
794
811
821
830
844
852
855
851
852
850
850
852
858
858
863
865
863
862
865
865
863
863
862
864
865
868
873
873
873
872
873
869
871
870
870
872
875
877
880
879
881
883
881
877
878
881
881
882
890
892
892
891
892
894
896
894
891
894
900
906
910
913
917
919
920
922
924
926
931
930
934
941
944
949
958
956
962
964
967
966
969
971
973
982
985
991
992
994
994
995
994
992
989
990
987
989
985
987
985
978
972
970
962
957
949
941
936
929
925
921
917
911
904
900
894
887
883
878
871
872
871
872
872
867
867
866
863
857
857
853
854
855
858
858
861
858
857
856
854
855
852
853
852
856
855
856
861
859
861
861
859
858
857
855
855
857
859
863
864
863
864
863
860
860
859
857
861
863
864
867
867
866
865
861
864
860
858
855
854
857
859
860
862
860
861
858
855
851
852
850
847
851
850
854
854
854
854
852
851
849
847
847
846
847
849
851
853
850
850
850
846
845
843
841
844
843
846
846
848
847
846
848
846
846
843
839
840
841
844
843
845
846
848
847
845
842
843
838
842
843
845
844
847
844
848
845
844
840
841
840
842
842
844
845
845
847
844
842
844
845
840
839
840
840
842
845
845
850
848
846
845
847
846
842
844
844
846
845
848
845
843
843
843
842
841
842
842
845
847
850
851
847
848
845
845
847
847
845
847
846
846
848
850
849
851
851
849
846
846
845
846
847
848
847
850
847
846
846
846
846
846
844
842
845
845
846
849
850
848
848
846
846
846
840
845
843
848
851
853
853
853
852
854
851
850
846
846
851
848
855
857
859
862
859
862
867
869
867
868
869
871
874
881
883
887
887
887
885
883
880
878
877
877
875
877
877
874
871
869
865
858
854
849
849
850
853
855
852
850
850
845
847
846
845
844
845
844
845
848
847
848
845
849
844
839
837
840
842
842
844
847
848
851
850
850
849
854
863
875
895
923
949
979
1005
1020
1018
1001
965
918
863
811
768
729
704
699
705
722
741
761
776
788
799
811
826
837
851
859
862
861
856
855
854
854
849
853
857
862
864
867
868
867
867
869
866
869
866
866
870
874
873
873
878
877
872
870
870
872
869
869
870
876
879
882
883
883
885
884
881
883
883
882
886
887
889
892
895
895
897
898
896
898
898
901
902
907
912
911
916
917
922
920
924
927
929
932
940
944
946
956
960
960
960
963
966
966
971
972
977
981
983
987
987
989
990
993
990
991
989
990
991
985
989
986
984
977
972
965
960
953
947
941
935
931
927
923
916
911
903
896
892
884
882
876
872
874
874
874
872
870
865
865
862
860
856
856
858
857
859
860
860
860
858
856
856
853
855
853
856
858
857
862
860
860
860
859
855
853
851
854
855
859
857
856
860
862
861
860
862
857
856
856
858
857
859
859
861
859
858
857
854
855
854
853
855
856
857
856
855
854
849
850
847
847
845
847
846
848
848
850
849
848
845
842
840
839
841
840
838
841
844
846
846
845
843
842
841
841
839
839
841
841
842
841
843
843
842
842
839
838
838
839
841
841
843
843
844
840
840
839
839
836
835
836
838
837
838
841
840
843
844
840
841
841
837
835
836
838
839
842
844
842
839
840
840
838
836
840
839
842
842
844
842
841
839
841
837
835
837
833
839
839
839
844
843
842
841
839
838
835
836
834
834
841
841
842
842
844
839
840
838
840
834
837
838
840
840
841
842
844
841
841
839
838
837
836
838
839
839
844
844
845
843
841
840
836
834
835
835
839
843
844
846
846
842
842
839
837
838
839
843
844
848
851
850
856
857
858
859
858
857
856
858
863
872
878
879
880
879
877
876
869
869
866
863
864
864
866
865
860
856
850
845
842
837
837
839
840
842
843
845
843
842
839
838
834
833
833
835
839
839
838
837
837
839
837
836
833
831
836
840
843
845
847
850
860
871
886
907
931
962
984
1006
1006
984
944
889
832
775
725
689
671
678
699
722
749
768
781
794
806
818
829
838
849
850
853
851
853
853
858
857
857
861
862
860
859
861
863
865
867
868
872
874
874
874
868
872
871
872
871
870
877
877
881
883
883
884
880
880
876
876
881
879
883
887
889
893
891
895
893
893
893
893
895
898
901
908
910
910
917
914
915
917
913
918
922
928
934
937
945
948
950
956
960
960
960
963
964
969
974
980
982
985
987
990
989
989
989
992
990
992
994
993
994
992
990
986
981
979
970
967
964
957
952
950
945
942
937
932
923
918
910
905
899
895
892
890
888
887
883
882
879
877
872
871
870
869
870
874
871
871
868
867
867
867
866
866
866
869
868
869
870
873
868
871
871
869
869
865
867
868
866
869
873
873
873
872
874
873
871
870
869
871
871
873
875
875
875
872
870
869
871
869
871
871
872
873
872
873
872
871
868
868
866
865
862
862
864
859
864
868
870
866
864
863
862
860
860
859
861
861
865
861
863
863
861
859
860
858
859
856
859
861
861
859
862
861
860
856
854
854
855
858
860
859
862
864
865
863
860
858
855
853
853
856
859
856
860
860
861
859
860
859
856
854
853
854
856
858
861
861
859
857
856
855
855
854
855
854
857
859
862
862
860
860
860
857
856
856
858
853
857
858
860
861
860
858
859
857
855
857
856
855
857
858
861
860
858
860
855
855
856
856
857
857
859
860
863
861
862
860
856
855
856
855
856
858
859
861
862
864
862
861
861
860
860
858
858
859
859
859
862
860
861
862
861
861
862
858
860
861
862
863
868
868
866
864
864
866
861
863
864
864
871
873
875
883
885
883
881
880
883
882
886
891
895
897
900
902
903
901
893
889
889
886
885
881
884
884
881
879
871
868
867
865
864
862
861
860
864
864
863
865
864
862
858
855
849
848
851
852
856
861
863
863
863
862
862
860
857
856
856
858
859
865
866
869
878
890
903
920
945
972
1000
1025
1035
1029
1006
970
918
861
809
759
726
712
717
737
757
779
799
816
831
840
849
860
865
868
873
872
872
871
875
876
877
879
879
881
880
878
880
877
881
883
884
890
889
887
886
887
885
888
888
890
890
891
898
897
897
897
896
894
893
891
892
894
895
898
902
902
902
902
905
904
904
904
904
905
909
911
917
918
921
916
915
919
918
922
922
926
931
936
943
948
951
949
955
956
955
960
964
969
971
977
980
986
987
990
990
992
994
994
998
999
1000
1004
1005
1007
1006
1005
1003
1002
997
994
990
990
987
987
983
981
974
968
960
950
946
941
934
925
924
919
915
911
910
905
899
894
889
887
883
883
883
882
884
881
878
878
874
869
871
868
866
870
870
873
870
872
873
874
872
870
869
869
869
868
868
868
870
874
875
873
872
871
872
872
872
875
874
877
878
878
879
879
875
873
874
872
872
871
869
874
877
878
879
877
875
872
871
870
866
867
870
871
875
871
870
871
867
868
866
867
865
865
865
867
869
867
867
863
863
862
859
857
858
859
861
861
864
865
862
863
858
856
856
853
856
856
858
857
858
859
862
862
856
857
858
857
855
854
856
855
856
859
857
857
852
853
851
846
849
850
849
855
858
860
855
855
853
852
850
850
848
850
852
854
853
855
853
850
847
847
844
847
845
848
848
850
851
854
854
853
851
848
847
846
847
846
850
850
850
854
852
849
853
850
849
850
847
849
850
852
852
855
854
853
850
848
847
850
847
851
851
850
853
854
855
853
854
852
849
848
849
846
849
849
854
856
855
854
853
850
848
844
847
849
850
856
855
853
852
852
853
848
850
851
849
850
849
851
856
855
857
858
856
854
849
850
850
850
852
855
857
856
856
857
856
858
858
860
862
864
867
870
872
872
871
875
878
880
882
877
877
879
884
888
886
885
883
877
873
871
868
864
860
857
858
857
855
856
855
854
853
850
848
846
846
844
849
847
849
846
846
845
841
843
839
839
839
841
845
846
847
851
847
849
851
845
847
845
850
859
873
891
915
942
965
992
1005
1000
976
934
880
825
775
731
701
684
686
702
726
749
764
783
794
806
824
836
848
859
859
861
859
857
854
856
851
854
859
863
866
869
868
868
867
861
861
863
866
867
869
868
871
874
873
872
869
869
872
872
870
874
876
877
880
879
883
884
882
881
878
879
881
880
881
887
887
888
893
895
896
894
897
899
897
901
906
910
914
916
919
918
921
924
925
927
932
937
943
946
955
958
962
964
967
969
970
971
973
978
981
986
989
990
992
986
993
994
990
989
986
982
989
991
987
987
980
979
973
965
959
952
946
942
936
929
923
918
914
907
901
896
886
883
881
878
877
877
875
877
873
869
869
865
861
856
858
856
856
859
860
861
861
860
860
859
854
858
853
854
853
855
857
857
859
860
858
856
856
854
855
855
858
859
863
862
862
862
858
853
851
850
850
851
856
858
860
865
858
860
858
856
855
856
853
854
853
851
853
854
855
853
852
849
849
847
848
845
844
851
853
851
852
852
850
845
847
843
842
844
845
846
851
851
851
853
850
848
843
841
838
842
843
844
846
845
847
845
843
844
845
841
843
845
844
841
844
847
849
850
847
846
843
840
840
839
842
845
842
845
845
846
845
845
844
843
843
843
845
846
847
851
850
849
845
846
845
846
845
848
846
847
849
851
849
852
849
847
845
843
841
845
848
850
850
849
851
851
849
849
845
847
847
847
849
848
850
854
850
855
853
850
849
849
850
850
853
852
851
855
855
854
851
851
850
850
850
851
851
855
857
859
858
859
857
855
854
854
852
852
853
854
857
862
858
861
857
858
856
855
853
852
854
856
858
860
861
859
859
858
856
857
855
864
866
871
876
879
878
877
876
877
875
881
884
886
892
895
897
897
893
890
885
880
878
875
875
874
874
873
872
868
867
864
862
857
859
854
856
855
855
858
858
854
856
856
851
846
847
848
849
850
851
855
856
858
858
859
857
855
856
858
854
854
859
873
885
903
924
948
978
1003
1020
1024
1008
975
928
877
819
771
734
714
713
730
749
770
791
810
824
835
849
859
866
870
869
865
864
864
864
866
870
873
875
878
878
877
876
875
877
876
875
877
878
878
880
884
885
882
885
884
884
883
884
883
886
885
886
891
891
891
891
891
887
890
891
893
898
898
899
904
904
906
903
904
906
905
908
907
913
916
921
927
928
931
935
936
939
936
936
942
947
951
957
963
966
972
971
972
974
975
979
980
988
989
994
997
998
998
999
997
997
996
991
990
989
992
993
993
990
987
981
976
969
959
953
947
943
938
935
931
925
918
912
905
902
895
893
888
890
889
887
881
881
882
879
876
873
870
869
869
870
873
872
874
872
874
871
871
871
866
867
866
870
872
874
876
875
874
875
874
875
873
871
871
876
877
875
876
876
876
875
877
874
872
872
870
873
876
880
883
879
880
880
874
872
869
868
869
868
867
872
874
872
871
872
870
867
866
864
865
863
865
866
869
865
865
865
861
861
859
860
861
859
861
865
867
864
862
860
861
858
858
855
856
859
856
860
863
860
860
861
857
858
858
854
853
855
857
859
862
862
859
859
858
855
855
851
855
856
856
858
861
858
859
856
855
851
855
854
853
853
854
855
859
859
857
859
857
853
853
852
852
853
854
853
856
860
858
860
856
855
853
854
853
855
859
858
860
859
859
857
852
849
851
849
851
854
858
859
861
862
858
855
854
851
852
852
851
855
854
854
858
856
856
855
855
853
854
854
854
852
856
857
859
860
857
856
854
855
852
851
851
856
854
856
859
861
857
858
855
855
853
851
851
855
855
856
857
858
859
858
860
857
855
854
852
852
855
858
858
855
856
856
855
855
855
854
855
859
861
866
871
868
871
869
873
873
870
868
870
872
881
886
888
888
892
890
888
886
881
874
870
871
873
873
875
872
868
866
858
854
851
849
847
845
846
852
853
851
849
842
842
842
840
839
840
841
843
846
850
849
848
845
845
841
843
843
842
842
846
850
855
858
869
878
895
917
943
966
990
998
995
964
921
866
810
764
725
700
696
704
727
750
771
791
808
822
827
841
846
848
852
852
849
848
851
855
859
859
861
861
861
859
860
858
858
859
863
864
867
865
865
865
865
866
868
864
864
867
867
870
874
875
875
874
872
871
871
873
874
873
878
883
883
886
885
886
883
886
883
883
884
886
891
896
899
899
901
903
902
908
906
906
909
914
919
921
926
932
938
939
940
944
946
948
953
955
954
963
967
968
972
973
976
977
975
977
977
980
979
981
983
983
984
979
975
968
965
959
952
949
944
940
938
932
926
916
910
904
897
889
883
878
877
875
874
870
866
864
857
854
854
850
852
851
853
852
855
853
853
855
849
848
847
844
846
847
849
850
853
851
852
851
848
846
847
844
843
845
846
850
854
851
850
849
848
846
843
843
842
843
846
848
850
849
849
847
847
843
842
840
840
839
840
841
843
845
845
842
841
843
839
839
841
837
839
841
841
840
838
837
835
837
830
831
833
832
835
837
835
837
833
836
835
831
831
830
829
831
835
835
837
838
837
835
833
830
830
826
824
826
827
828
831
832
833
831
831
830
828
827
828
829
830
829
831
832
831
830
830
823
824
823
824
826
828
826
830
833
832
831
829
825
825
824
825
824
826
826
827
826
826
829
833
830
829
826
825
824
828
829
831
832
830
828
828
825
825
825
824
827
828
829
830
828
833
833
832
828
827
828
827
826
828
833
832
833
833
834
832
832
829
827
828
826
830
831
831
833
832
831
830
825
826
830
829
829
835
836
835
835
834
836
838
835
834
830
830
831
833
838
837
839
840
837
835
834
832
833
834
838
839
842
846
848
850
852
853
856
852
851
853
856
858
865
870
871
871
874
870
871
868
868
865
866
863
864
865
863
863
859
854
846
840
837
833
835
840
840
843
843
842
842
837
835
832
832
834
836
836
839
837
839
835
835
831
837
837
835
838
837
842
845
849
849
853
856
871
887
908
935
965
993
1007
1008
984
945
893
838
785
740
704
693
700
720
743
765
784
794
805
815
829
838
849
852
855
859
856
856
860
860
862
863
865
864
863
863
863
866
869
870
869
873
873
878
874
870
871
872
875
875
876
877
879
882
881
882
882
882
882
881
884
884
886
889
894
893
894
894
893
892
891
894
890
897
900
901
905
907
908
911
912
912
912
914
915
919
924
928
931
934
937
940
940
945
947
950
952
953
958
967
970
974
979
981
981
980
981
980
984
985
991
989
991
990
991
990
983
981
977
973
970
966
965
961
960
955
949
944
937
928
920
914
907
906
902
900
895
894
890
887
881
879
874
871
870
870
873
874
876
875
873
873
865
867
864
865
864
867
866
868
869
869
869
870
867
867
860
863
862
862
865
866
869
869
871
870
869
869
865
864
865
870
867
873
875
873
871
873
867
866
865
863
866
867
869
869
874
874
874
868
868
866
865
859
862
862
864
865
865
868
866
863
862
863
862
855
854
856
860
860
863
862
863
861
858
858
857
854
856
858
858
860
861
860
861
859
856
855
853
854
853
854
856
858
856
858
859
858
857
858
854
853
857
857
859
864
863
863
861
860
859
855
855
855
856
856
859
860
861
862
864
861
858
858
855
855
852
854
860
860
863
860
860
861
861
861
859
859
858
855
856
856
859
859
859
859
859
858
858
856
856
858
862
863
862
864
863
862
860
857
855
854
855
857
859
860
863
865
863
864
862
857
856
857
861
859
858
859
864
865
860
860
859
861
860
859
858
861
860
863
862
864
865
862
862
860
856
854
857
859
860
862
864
866
868
867
863
864
862
859
860
862
861
865
867
867
867
864
866
863
863
863
863
859
864
864
866
867
869
866
861
862
861
863
861
861
866
870
874
875
880
881
880
883
881
876
878
877
883
887
891
894
897
900
898
899
895
893
894
890
887
884
890
889
887
886
879
876
869
866
865
862
866
868
868
869
866
866
862
854
856
856
851
851
852
853
859
861
859
861
860
857
857
854
856
856
858
861
863
866
869
875
889
903
923
947
974
997
1020
1020
1011
985
944
891
840
793
748
720
712
722
747
770
792
810
825
835
844
855
864
867
870
869
871
870
873
871
871
870
871
873
874
874
871
874
878
878
882
881
882
881
880
879
878
877
878
881
882
885
890
889
890
888
885
883
885
884
885
881
886
889
894
895
896
899
898
896
896
894
897
898
899
904
909
912
912
914
913
917
917
920
923
927
933
935
938
943
950
949
948
951
953
956
959
963
971
974
979
984
982
985
985
988
983
985
987
990
991
993
994
995
994
988
987
979
971
964
957
952
948
939
937
931
927
918
910
902
894
887
884
884
881
882
883
879
877
872
870
866
861
860
856
860
861
863
863
865
865
865
863
861
859
857
854
855
859
859
861
860
861
859
860
857
853
854
855
858
857
859
861
862
859
860
863
858
854
855
857
855
857
859
861
860
859
864
863
861
857
855
855
855
855
855
859
857
852
853
851
850
850
847
846
847
846
852
854
854
853
852
850
843
842
841
840
839
842
844
844
850
849
847
848
846
843
840
837
840
844
844
845
847
846
845
843
843
842
840
840
841
842
843
845
848
846
845
842
843
841
840
838
839
840
843
843
846
846
842
842
839
837
835
832
835
838
839
842
844
844
843
844
839
837
839
837
837
839
839
842
845
845
842
843
842
835
836
841
841
846
842
844
845
845
842
841
842
841
839
840
842
841
842
843
846
848
846
843
838
840
839
838
839
842
844
846
844
846
846
843
844
842
842
840
842
842
846
844
846
845
848
846
843
840
839
840
843
843
848
847
847
848
849
847
844
846
843
842
843
844
845
846
845
845
845
849
843
846
843
845
842
845
844
845
851
849
847
846
847
845
848
849
852
854
863
866
867
866
868
865
864
865
868
869
873
876
878
880
883
883
878
875
873
873
871
865
869
868
867
863
859
856
854
850
846
846
845
847
847
847
850
850
846
848
846
841
839
838
840
842
842
845
847
845
849
850
851
851
846
845
845
845
849
853
858
870
881
899
923
946
974
997
1016
1013
992
953
905
851
798
752
714
690
689
709
731
756
777
792
808
820
836
847
856
855
859
858
855
858
856
860
864
870
871
874
875
875
875
876
871
870
871
875
875
879
881
877
880
878
877
878
877
877
884
882
886
888
886
888
893
892
892
890
890
890
891
897
898
901
904
906
903
905
904
903
902
904
911
914
916
919
924
925
931
930
929
931
933
932
941
946
950
955
960
964
965
965
968
970
973
974
978
982
986
990
993
995
996
995
991
990
987
988
987
987
987
986
983
979
974
970
963
957
948
943
938
934
929
927
921
917
909
907
900
894
893
887
886
887
884
883
882
881
879
879
877
874
870
872
874
875
877
875
879
882
879
875
873
873
869
870
869
871
872
875
875
873
872
873
871
870
871
872
873
872
875
877
878
875
876
875
874
874
871
870
870
874
875
878
878
876
877
874
871
871
872
869
868
871
870
872
873
873
871
871
870
866
863
866
867
866
864
868
865
867
866
865
862
861
860
860
859
862
862
865
866
868
866
866
862
860
858
858
858
859
860
861
867
868
865
862
861
860
859
857
856
858
860
860
861
861
861
859
858
857
856
857
856
859
860
863
865
862
861
860
857
857
856
855
854
857
860
860
860
860
864
861
857
862
861
863
858
860
861
860
862
864
862
862
856
859
859
857
855
857
857
861
865
863
862
863
861
859
858
857
860
859
861
862
864
862
861
862
861
860
858
854
856
860
860
861
863
865
863
863
861
856
855
857
856
859
863
861
866
863
865
863
863
858
853
853
857
861
860
862
864
863
863
864
863
862
859
860
858
861
862
863
865
867
864
863
861
862
862
859
863
864
864
866
866
869
869
865
867
864
864
863
865
867
870
876
876
880
882
884
885
883
885
883
885
889
895
899
904
904
902
901
896
895
892
890
887
888
888
891
888
885
881
878
869
865
864
861
860
861
862
866
868
869
865
861
859
857
857
855
856
857
859
863
864
863
867
860
860
858
858
858
860
862
864
868
870
875
879
893
908
928
953
973
1000
1020
1031
1027
1007
972
926
879
833
789
750
725
716
724
738
762
782
799
814
825
836
848
856
867
872
874
877
878
873
872
874
875
873
874
876
876
879
883
888
889
891
889
890
888
888
886
887
885
886
886
886
891
894
893
895
894
894
891
892
892
895
897
901
901
905
902
904
904
904
904
904
905
905
908
911
908
915
917
916
918
916
922
923
923
927
933
937
942
946
949
951
954
955
958
959
960
962
969
974
981
982
984
986
986
991
991
992
991
993
992
994
1002
1007
1001
1003
998
991
991
986
980
974
973
970
969
964
959
950
940
936
927
920
912
910
908
905
903
900
897
893
891
884
884
881
877
875
876
875
878
879
878
874
872
872
870
868
868
867
868
869
875
876
873
872
872
870
872
869
865
865
868
868
870
871
873
873
874
873
870
869
868
869
870
871
872
875
872
870
870
869
868
866
868
866
867
864
869
868
866
865
864
862
860
861
859
858
856
859
861
863
863
862
860
859
856
855
852
850
854
855
855
856
858
854
854
852
851
853
851
848
846
852
850
853
852
851
849
848
847
842
842
844
846
848
849
855
851
850
853
849
850
845
847
846
848
848
850
854
853
852
851
846
850
847
846
841
843
845
848
850
850
848
850
848
843
843
839
844
842
845
848
850
849
846
846
844
844
844
841
839
844
844
847
849
849
848
847
849
847
845
841
843
847
847
847
849
848
844
843
844
843
840
841
839
841
845
848
851
851
850
849
847
843
842
841
839
843
842
845
845
846
846
849
848
848
846
841
844
844
847
848
850
847
848
846
844
842
844
841
844
846
848
848
849
848
848
847
843
843
843
838
839
838
842
845
848
850
847
848
847
848
847
853
855
856
860
864
865
866
866
866
865
864
866
871
875
879
883
882
883
882
877
876
867
869
867
864
862
862
864
861
859
851
847
846
845
842
844
843
836
839
840
839
841
837
841
841
839
838
839
836
835
837
840
838
843
845
846
844
844
847
845
843
844
846
859
868
884
901
923
949
974
995
999
984
955
913
864
813
768
726
695
680
679
697
716
738
754
768
780
794
812
826
838
846
847
850
847
843
841
850
851
854
857
860
863
862
862
860
859
858
857
860
861
867
869
869
871
870
870
869
869
869
867
868
871
871
875
877
874
878
877
876
876
876
877
882
883
884
886
891
890
887
892
890
891
893
894
898
902
906
912
915
917
918
919
922
923
926
926
929
933
939
946
952
956
959
959
960
964
964
965
970
975
979
982
982
984
987
984
984
984
981
982
980
978
974
973
969
961
954
947
940
935
926
923
917
913
909
903
897
894
889
884
879
876
871
868
866
870
865
867
865
868
864
863
861
858
859
858
859
859
862
866
865
864
860
859
854
857
857
857
857
859
861
862
863
864
863
862
859
859
859
860
860
862
863
867
866
866
869
866
858
858
860
860
862
860
863
864
865
863
862
862
857
857
858
856
855
854
855
858
856
855
852
851
849
844
843
842
846
848
852
854
854
852
852
851
848
842
844
842
844
845
847
846
847
846
848
845
845
845
842
843
844
843
843
845
842
845
848
846
845
844
843
843
841
844
849
849
850
848
845
846
844
844
843
839
843
844
843
846
849
850
849
847
848
843
842
844
843
845
847
848
848
849
848
847
846
844
843
843
844
847
847
849
847
849
848
846
844
843
841
842
843
845
848
850
851
850
850
845
846
843
841
844
844
843
845
846
851
849
847
848
845
843
843
843
843
845
846
850
851
848
847
847
846
842
841
841
844
846
847
849
850
850
847
846
845
845
844
843
846
849
851
853
851
855
851
851
846
847
844
844
846
849
850
856
856
857
852
857
857
862
864
868
866
870
871
875
877
880
882
882
882
879
881
880
882
880
880
882
881
877
878
873
875
872
868
866
862
861
854
854
854
856
849
847
844
846
844
847
848
849
850
849
851
846
849
847
845
842
839
844
838
844
849
851
853
854
852
856
852
852
853
858
872
889
911
933
959
984
1005
1015
1016
1002
972
935
889
845
801
761
730
714
713
725
745
764
782
795
808
819
834
846
855
860
861
863
859
856
855
855
858
861
865
865
870
871
872
870
872
872
870
870
874
875
878
878
879
880
880
879
875
876
877
877
881
881
885
889
888
888
887
888
887
888
884
885
886
891
894
895
898
898
903
900
902
902
903
905
908
911
916
915
919
923
925
927
927
929
930
934
939
947
950
956
958
961
964
964
967
967
971
973
975
980
981
989
989
994
991
991
992
992
989
989
989
990
993
989
986
982
975
967
960
953
948
942
937
931
923
923
917
910
906
898
893
885
881
880
880
878
875
879
878
875
873
871
867
868
864
863
864
865
865
868
867
865
867
864
864
862
862
859
860
863
865
868
864
865
867
864
860
858
859
863
862
866
866
869
869
870
868
866
865
862
861
862
862
863
862
866
866
869
867
865
859
862
859
858
855
858
859
858
856
859
858
855
854
853
853
854
853
851
852
855
855
857
853
852
851
847
845
845
846
851
849
852
853
853
850
847
846
843
842
840
841
844
848
848
847
848
845
842
846
843
844
841
843
843
848
848
849
847
846
845
839
841
837
836
836
842
841
844
844
846
847
844
843
841
838
837
842
843
845
845
844
843
846
842
844
843
842
843
843
843
845
847
848
848
845
846
843
838
839
841
842
844
845
847
848
848
848
843
843
842
841
840
843
846
844
846
849
851
850
847
846
844
846
844
843
848
847
847
849
846
847
844
845
839
837
843
844
844
846
850
848
847
846
845
843
841
841
842
842
844
847
849
850
850
851
851
849
847
846
846
846
848
850
852
847
848
848
849
849
847
847
848
849
851
854
857
857
862
862
861
862
864
863
861
866
868
873
879
885
883
886
887
884
881
880
879
876
873
873
873
872
872
870
868
866
859
850
852
850
847
850
852
852
852
851
848
846
840
836
840
840
840
840
846
843
844
842
843
842
840
839
840
841
841
844
849
850
853
852
857
865
875
890
908
931
956
982
1002
1011
1002
975
934
888
837
791
753
719
704
705
717
736
757
776
788
800
809
822
831
841
851
856
858
860
859
860
854
855
855
858
859
861
860
862
866
869
870
871
870
869
869
865
868
868
871
876
879
880
879
879
874
875
870
869
871
872
877
878
883
884
889
887
885
886
882
888
887
886
890
893
896
898
902
903
903
901
903
903
907
911
912
920
923
928
932
932
934
938
941
943
949
952
960
963
969
971
972
974
976
975
978
981
982
984
986
987
990
994
992
988
988
985
976
974
970
964
962
958
954
949
945
937
927
919
911
905
901
899
896
898
893
890
884
880
875
872
864
863
862
862
864
865
866
865
865
862
861
857
851
851
850
852
854
855
858
857
856
854
855
855
852
854
851
854
856
857
856
859
858
856
855
853
852
854
851
849
855
855
857
856
856
855
855
854
850
847
848
851
852
852
854
852
851
850
846
846
847
843
842
844
843
846
847
845
847
847
844
845
839
838
837
837
840
839
840
845
845
844
840
838
833
834
835
833
835
836
835
834
836
836
837
834
830
832
829
831
834
833
836
838
837
836
832
832
830
829
831
836
835
837
838
837
837
837
834
833
834
830
830
832
835
838
838
841
842
842
837
834
834
832
828
829
830
830
836
835
837
835
833
833
830
830
830
832
834
834
836
839
835
839
835
831
831
829
824
827
831
833
836
837
835
836
835
834
833
831
829
831
832
832
837
837
838
834
834
833
831
831
830
829
830
833
833
835
838
837
835
835
835
832
832
835
837
839
842
843
844
849
849
849
848
848
848
848
849
855
858
864
868
870
867
870
870
864
866
860
861
861
864
864
861
857
853
848
845
839
835
835
834
835
835
838
840
840
835
836
831
828
828
828
828
831
831
834
832
831
832
834
832
829
830
832
835
836
837
839
841
843
840
843
854
866
884
908
935
963
990
1007
1007
981
937
886
824
769
719
684
666
666
685
711
734
750
767
777
785
790
808
821
832
840
845
845
845
843
841
841
842
841
843
844
850
851
854
855
853
854
854
854
850
850
850
851
854
857
859
862
863
861
857
859
857
856
859
858
863
865
868
869
872
869
869
869
865
865
870
872
875
875
879
880
886
886
886
887
885
885
887
893
895
897
898
908
910
914
915
918
920
919
924
928
930
935
941
945
947
954
955
956
957
956
957
962
967
970
975
975
973
976
977
976
972
969
972
971
969
968
967
967
963
960
956
947
942
935
928
919
921
917
914
907
901
898
892
885
880
876
871
870
867
865
866
865
862
859
856
855
854
853
847
847
849
850
855
855
855
852
850
849
846
847
845
849
849
850
852
852
853
853
853
850
851
847
849
848
847
848
852
852
854
854
851
850
848
848
846
850
850
854
852
856
855
852
851
850
846
845
845
847
846
848
850
850
844
846
848
842
839
843
842
843
843
842
844
846
843
844
840
840
838
835
834
834
837
839
839
841
839
840
835
832
832
832
830
831
832
835
835
839
839
836
837
836
834
831
829
830
830
833
834
835
835
835
833
832
832
831
830
831
830
833
834
837
834
834
832
832
831
827
828
828
830
831
831
836
835
837
835
834
831
827
828
827
830
831
835
837
836
837
831
833
831
829
830
831
832
834
835
834
836
835
834
831
830
829
827
833
833
836
838
835
835
833
831
830
830
830
829
826
833
834
834
835
836
838
836
837
832
832
833
834
835
837
838
838
839
837
837
838
835
835
835
836
835
836
840
845
842
847
847
848
847
851
852
853
854
856
857
862
869
874
873
875
873
873
867
866
868
866
864
861
858
858
858
855
852
846
842
840
841
839
839
839
840
837
835
833
831
829
828
830
830
833
835
837
839
837
836
834
829
831
828
829
835
837
840
839
839
843
845
854
863
879
904
933
962
990
1012
1021
1012
980
938
889
831
780
736
704
694
698
719
742
762
784
796
811
818
829
832
839
845
845
844
846
847
848
852
853
850
851
853
853
852
856
861
862
861
861
861
863
860
861
864
860
860
863
866
872
872
874
871
870
868
864
867
868
870
872
877
880
880
880
881
882
884
878
879
880
882
886
889
895
896
897
896
897
897
899
902
904
907
912
917
921
925
928
929
933
930
935
939
941
947
950
960
965
968
970
970
974
972
972
979
980
985
984
986
988
990
986
984
980
977
972
968
964
959
957
950
947
942
936
926
918
910
902
896
895
889
888
888
885
880
876
871
867
864
858
856
854
852
854
855
858
856
853
852
854
852
849
846
847
848
847
850
853
850
849
850
847
849
846
845
848
847
846
850
854
854
850
848
849
847
847
846
846
847
851
852
856
855
855
852
852
850
847
842
845
845
846
849
850
851
851
849
845
845
844
842
841
840
841
844
845
842
843
841
837
836
835
837
834
837
837
839
843
838
837
836
833
833
830
828
830
832
832
834
837
835
835
836
834
834
833
833
827
831
830
830
834
831
834
833
833
830
830
831
831
828
829
834
835
831
834
832
828
828
829
827
826
827
830
832
836
835
833
829
826
828
827
826
828
828
831
833
834
832
832
832
831
831
828
827
826
827
829
833
834
831
832
831
827
826
827
827
825
829
833
835
834
830
832
828
830
826
826
828
824
826
827
831
832
832
831
831
830
824
826
824
828
828
830
832
833
836
835
833
832
831
829
830
829
830
832
834
837
832
838
837
835
838
838
841
842
845
849
849
852
855
854
856
856
858
860
860
864
867
864
867
869
870
866
860
857
852
852
848
848
848
844
841
840
836
832
833
829
828
829
828
828
826
828
831
831
830
826
825
824
824
822
821
823
825
828
827
833
830
830
832
835
833
840
843
856
875
898
925
952
976
990
987
967
927
880
823
771
728
693
672
669
680
703
724
742
756
772
786
798
813
827
834
841
842
841
839
838
837
836
835
837
840
844
847
850
849
851
850
848
850
847
850
851
851
853
857
859
860
861
856
855
854
852
849
854
857
858
860
865
867
865
865
866
863
864
863
864
864
867
869
870
875
872
878
874
876
878
879
885
887
891
894
899
899
904
903
904
907
911
911
916
924
929
937
939
943
948
949
951
950
951
955
958
963
970
973
980
975
976
982
982
980
979
977
977
982
978
979
978
974
969
967
960
953
945
936
931
928
921
915
910
903
897
890
883
877
872
867
862
862
860
859
858
856
856
852
844
849
844
839
842
843
847
845
847
847
846
842
841
839
839
839
838
840
839
840
843
844
846
845
841
842
836
835
836
840
844
843
847
847
846
844
842
835
839
836
841
840
844
842
846
843
840
843
843
842
841
838
835
838
838
841
840
840
841
839
834
833
833
831
830
831
833
834
837
837
839
835
837
833
832
830
830
833
832
831
833
833
828
827
827
827
824
824
826
827
830
832
833
831
833
830
829
826
825
824
825
825
827
829
831
831
830
831
830
829
827
828
826
828
830
829
832
834
831
831
828
828
828
826
827
832
831
831
834
834
834
834
832
829
829
826
826
828
827
829
830
832
832
832
831
829
830
828
827
831
833
834
836
836
836
835
836
833
830
826
830
832
832
835
834
835
837
834
834
831
830
827
828
831
833
837
839
842
839
839
836
834
832
830
830
832
835
835
838
837
836
837
836
836
836
836
835
837
838
838
839
838
842
841
840
840
841
839
839
847
850
857
861
861
860
861
860
861
860
862
863
864
868
870
871
871
866
862
859
856
854
850
849
849
847
843
842
842
841
838
836
838
835
834
834
837
838
837
835
836
834
833
834
827
826
829
832
830
831
833
838
838
840
842
840
839
838
843
852
864
882
906
939
968
993
1014
1016
996
958
906
846
795
747
708
691
694
710
731
754
773
786
796
809
820
831
842
847
850
851
849
847
845
844
845
847
849
852
855
859
860
861
859
858
854
853
855
858
858
863
868
867
866
868
867
865
866
865
866
866
870
871
873
876
877
878
880
878
877
878
880
880
884
885
888
892
890
895
895
895
896
894
899
902
905
907
911
913
918
920
922
925
928
932
936
940
944
951
955
962
966
968
970
973
973
976
977
978
982
985
991
992
995
999
998
998
997
996
992
992
991
990
990
987
982
974
972
960
954
946
938
935
928
923
919
916
909
904
896
886
883
879
873
870
868
870
872
874
870
868
865
861
857
855
855
855
853
856
860
861
861
861
858
856
858
854
856
851
853
860
859
862
862
862
863
861
860
857
855
856
858
861
862
866
866
866
865
863
860
858
855
855
859
862
865
864
865
865
865
862
860
859
855
857
854
858
860
860
856
858
855
853
851
850
848
851
852
855
855
854
856
855
851
850
849
846
847
846
848
849
850
853
855
854
853
852
852
847
845
843
846
849
851
853
851
852
853
851
850
849
848
849
852
852
851
852
854
852
854
851
848
847
848
848
852
852
852
855
857
857
856
851
849
849
847
846
845
848
848
850
852
852
855
853
850
850
849
850
849
853
850
853
856
855
850
848
851
849
849
848
850
855
857
856
856
856
855
855
850
854
852
851
854
854
852
856
857
857
856
857
850
853
852
853
853
854
855
855
854
854
854
853
854
849
851
849
851
856
857
857
861
858
859
856
855
854
850
853
856
856
858
860
859
861
860
861
859
856
854
854
857
860
860
861
860
862
864
859
861
856
856
857
858
858
860
862
867
864
861
863
863
866
864
870
872
879
879
887
890
889
884
883
886
886
891
893
896
897
898
901
902
900
896
893
886
886
880
881
884
883
879
879
874
873
869
866
865
862
861
857
860
864
867
865
863
861
858
855
854
851
852
854
854
860
863
865
864
866
865
866
862
863
862
872
881
900
922
952
985
1011
1028
1023
1001
954
903
845
790
750
723
718
734
755
780
802
818
833
845
857
864
873
872
876
879
878
876
876
876
874
871
871
875
880
884
884
887
889
888
888
885
885
884
885
883
887
887
889
892
890
891
890
889
889
888
891
889
891
892
895
900
899
901
900
899
898
898
901
905
908
913
915
917
919
918
921
920
918
921
921
928
931
938
942
946
950
952
958
959
964
965
965
973
977
982
988
990
992
994
997
997
998
998
1000
1004
1006
1005
1012
1014
1008
1007
1006
1002
1000
993
990
984
981
976
971
967
959
953
946
936
930
919
914
913
907
904
901
900
897
896
891
888
884
883
881
879
876
879
880
880
879
879
876
877
872
870
869
873
870
874
877
875
874
874
871
869
869
865
868
865
870
872
873
875
877
875
874
870
872
871
873
872
875
874
873
875
875
879
874
873
871
867
864
866
873
871
875
877
874
871
872
870
863
863
863
861
862
864
867
865
865
865
861
864
861
861
860
858
858
858
862
859
861
859
856
859
855
853
854
852
857
857
860
857
855
860
856
854
854
850
852
851
851
850
852
858
858
857
856
853
852
852
846
850
854
848
853
853
854
852
852
854
853
852
852
852
855
855
859
858
857
857
852
852
847
849
850
851
853
856
854
855
853
853
851
853
852
849
850
849
853
848
852
856
856
857
855
853
848
848
850
850
849
849
853
857
855
853
851
847
847
844
849
851
851
850
854
854
855
854
853
851
850
850
850
848
849
853
857
856
856
857
854
853
852
849
851
848
852
852
849
852
848
849
847
848
848
850
850
851
853
854
856
857
855
856
854
853
848
843
846
848
850
851
854
856
856
855
853
851
846
848
850
847
848
852
855
855
857
861
861
865
865
867
868
868
868
869
873
876
879
882
879
880
878
877
878
878
880
878
878
875
878
872
871
868
862
857
853
852
850
852
855
853
852
851
852
850
846
846
842
841
843
846
850
848
851
850
848
849
847
846
849
850
850
854
854
858
857
856
861
871
878
896
916
947
978
1005
1017
1012
985
937
876
815
760
714
687
681
692
716
742
768
785
798
812
824
836
846
850
854
858
860
861
861
861
863
861
860
862
863
864
868
869
872
873
877
874
877
874
872
875
874
875
875
878
876
879
884
883
882
881
880
879
877
884
887
891
893
889
890
893
894
895
895
894
896
898
901
901
910
908
911
913
917
919
917
916
917
921
926
930
938
939
944
950
953
956
956
956
962
965
969
972
977
986
988
990
991
991
991
991
992
993
989
993
995
998
1000
997
997
993
989
981
977
972
968
964
959
957
950
947
941
934
927
917
913
908
903
900
901
898
896
892
887
884
883
880
877
876
877
877
875
881
879
879
875
877
874
872
872
870
873
873
874
876
875
876
874
875
871
872
871
871
871
871
872
877
874
877
879
876
875
873
874
875
873
875
876
878
878
881
879
875
872
874
873
872
873
875
878
878
878
879
877
875
871
870
869
868
867
869
868
870
873
872
872
868
869
862
862
863
863
864
866
865
866
868
868
864
863
863
863
863
863
859
865
864
869
868
863
865
861
860
856
855
855
861
859
860
864
865
865
862
858
858
857
856
857
858
860
859
863
862
862
862
863
861
858
856
856
855
859
856
861
858
860
859
858
858
859
859
859
860
862
866
867
867
867
864
864
857
859
858
860
861
862
866
866
867
866
862
863
859
859
855
858
859
859
864
862
864
862
863
862
859
859
858
860
860
860
863
865
867
866
865
860
857
858
859
859
861
864
864
864
865
864
864
866
859
859
857
856
862
862
863
865
866
866
864
863
862
861
859
860
861
864
864
865
866
867
864
862
861
861
861
863
866
866
868
871
872
872
869
869
867
861
866
869
872
880
881
883
883
888
884
887
887
888
893
896
898
900
903
901
900
900
895
889
888
884
882
884
885
883
878
876
872
871
866
861
863
862
862
863
866
866
866
866
865
860
860
859
857
858
856
856
857
859
859
859
860
860
859
858
858
857
860
860
867
879
894
917
943
968
996
1017
1023
1014
986
945
898
849
806
767
740
729
732
750
767
787
803
815
829
839
853
863
867
874
874
872
868
865
865
867
871
873
875
877
882
878
880
879
875
874
875
877
878
881
881
886
887
887
888
885
884
883
882
883
887
890
890
891
892
890
892
892
891
892
892
892
896
898
899
902
901
901
906
905
904
903
905
908
911
917
919
924
925
928
928
930
930
932
935
938
946
951
959
963
965
971
967
968
968
972
978
981
985
987
991
995
995
997
998
996
997
998
996
997
997
998
998
995
992
988
982
974
967
962
954
949
943
943
936
934
928
921
917
911
903
897
895
893
894
886
885
887
884
882
882
880
877
875
871
870
870
871
875
875
874
871
871
869
865
865
865
867
870
869
871
870
872
873
871
866
865
865
867
869
869
870
872
876
873
876
876
874
872
871
869
870
869
872
875
874
872
877
874
869
865
864
864
867
869
871
870
874
874
872
871
868
862
863
860
858
863
862
864
865
866
865
866
863
860
857
854
853
857
855
859
861
861
860
857
856
857
855
855
852
857
857
858
860
859
859
858
855
854
850
851
852
852
855
858
861
856
858
859
857
856
853
853
852
854
855
857
858
857
855
853
855
856
853
852
853
854
856
858
859
858
857
858
851
850
851
848
849
851
852
855
858
858
853
854
854
851
850
849
849
849
851
851
857
856
855
854
855
852
853
853
853
851
852
854
858
857
854
854
854
850
847
847
848
848
854
856
860
859
856
854
847
847
849
847
849
850
849
855
854
856
852
852
850
853
851
849
851
853
854
855
854
856
852
854
854
851
852
850
849
850
855
858
860
860
857
856
855
854
852
850
850
852
855
857
861
857
856
857
855
854
854
849
853
853
856
857
862
862
864
866
868
862
868
866
868
870
877
877
884
887
887
889
887
882
881
880
878
878
877
874
876
874
875
872
863
859
857
852
851
847
851
851
855
853
852
852
849
847
847
847
845
843
843
844
852
848
847
847
843
847
844
841
841
847
848
851
854
858
855
858
862
868
880
896
919
944
970
990
1002
1000
973
937
887
834
787
740
707
688
689
704
727
749
766
782
791
804
816
825
839
847
856
858
860
859
857
858
858
855
858
862
863
864
865
866
866
868
866
867
866
865
870
866
864
872
874
876
880
879
880
879
878
876
876
876
878
878
881
881
883
884
887
891
888
889
890
889
888
889
891
897
900
901
904
905
905
905
906
905
907
914
919
918
924
926
927
933
931
933
936
940
943
951
956
960
967
971
976
974
978
979
983
983
983
983
988
993
996
998
998
1002
994
996
995
989
986
983
980
974
972
966
959
952
943
937
931
923
920
913
910
908
904
899
897
889
885
880
875
871
869
869
867
872
876
873
871
869
866
868
865
861
862
861
865
867
872
871
869
869
867
866
866
863
864
866
869
872
874
873
869
869
867
865
863
865
863
864
866
871
869
870
870
867
864
865
866
863
859
859
862
863
868
867
865
867
863
862
858
858
857
860
862
864
862
865
863
864
858
857
858
856
857
857
859
859
859
862
859
858
855
850
852
849
850
848
850
851
856
856
855
855
853
852
853
851
849
850
846
851
852
855
854
855
854
854
850
849
847
848
853
853
855
855
858
854
852
851
849
846
849
852
854
857
860
864
864
860
860
857
856
853
854
854
856
858
860
859
861
860
857
858
854
852
853
852
858
860
860
859
859
856
854
857
855
852
852
854
856
858
861
860
859
862
859
859
855
855
854
857
856
861
864
863
863
864
861
858
859
858
858
859
857
860
861
863
862
862
860
858
857
856
856
858
858
862
863
863
860
859
860
858
857
855
856
854
860
863
866
866
865
865
867
865
862
859
859
860
863
864
866
867
868
868
867
868
872
872
872
876
881
883
886
888
887
887
891
887
892
889
888
891
890
893
893
889
888
885
882
881
875
870
870
866
865
867
865
864
866
864
860
859
861
859
858
858
855
858
858
857
860
858
856
856
853
853
854
857
858
857
861
863
865
865
862
863
861
865
875
890
910
934
965
993
1015
1030
1035
1019
991
945
895
845
799
753
725
715
719
739
761
782
802
810
828
839
853
861
872
874
875
871
868
869
867
869
869
874
876
880
881
881
885
883
885
884
880
881
882
880
880
884
889
885
890
892
890
890
887
885
885
887
886
888
893
894
894
896
895
892
894
891
896
895
899
903
907
907
911
911
913
909
910
912
915
917
921
923
930
935
935
938
943
945
944
945
951
956
961
966
970
974
979
981
982
984
986
988
992
994
997
1000
1006
1005
1006
1011
1007
1004
1004
1001
998
997
995
996
990
990
984
979
971
965
956
949
943
939
935
928
924
919
915
912
907
900
900
893
889
889
888
889
886
884
880
881
877
876
872
870
869
870
874
877
877
876
874
876
874
871
870
865
868
870
867
871
874
874
876
876
874
871
869
869
873
872
874
875
878
878
874
872
870
871
872
872
873
874
875
877
878
880
878
879
875
876
870
868
869
869
870
872
874
874
875
871
867
868
860
861
862
863
860
865
866
862
864
862
860
859
856
856
858
859
862
861
863
863
862
861
860
856
854
855
852
852
853
854
855
858
859
859
856
857
853
853
852
853
854
853
854
856
853
855
854
857
854
853
852
850
854
855
856
856
858
856
855
851
851
850
851
853
856
855
858
861
856
857
855
852
850
850
853
851
855
853
857
859
856
853
852
851
850
848
852
853
851
853
856
856
856
857
855
853
853
850
850
852
853
855
853
856
856
853
854
853
850
848
847
847
849
853
857
858
856
857
853
854
851
849
848
853
855
852
853
855
852
854
851
847
848
847
848
848
849
852
853
855
852
851
851
850
848
848
847
847
850
852
853
855
857
856
852
852
848
847
850
848
850
850
850
853
853
853
851
849
851
851
852
855
857
859
864
867
869
873
867
866
862
867
868
869
874
880
884
887
888
889
887
885
884
880
878
874
874
874
875
876
871
870
863
858
852
847
845
847
849
854
855
851
850
850
849
843
843
837
837
839
841
844
845
846
847
846
845
844
841
843
842
844
845
845
846
849
850
852
854
865
877
893
917
943
975
998
1015
1016
999
970
924
872
822
773
734
706
692
695
714
733
756
772
786
797
803
815
824
837
846
850
853
853
852
850
849
853
851
850
853
857
860
863
864
865
862
863
860
864
859
861
860
863
863
866
869
870
872
872
872
869
870
867
867
870
872
874
878
877
879
878
879
878
879
877
878
882
884
886
890
889
892
892
888
889
889
890
894
896
904
904
907
913
917
919
920
921
925
925
926
932
937
942
949
953
958
962
965
966
967
969
970
978
982
985
990
990
990
986
986
988
984
981
982
982
983
980
981
981
977
973
966
960
951
942
937
930
925
921
916
914
905
899
895
889
882
878
873
870
867
867
865
864
861
859
858
854
850
850
848
849
852
853
852
854
854
851
848
846
845
845
843
843
843
848
846
848
851
850
850
850
845
843
844
844
848
849
850
851
851
850
850
845
846
842
845
846
848
847
850
853
850
851
848
844
840
840
839
841
842
839
843
842
844
841
840
837
835
834
835
830
830
832
833
834
832
835
835
830
830
828
830
830
833
833
835
836
834
828
832
830
828
828
829
830
831
834
835
838
837
838
834
832
829
829
828
826
826
832
832
834
832
833
831
830
829
825
827
829
829
831
831
832
831
830
828
828
827
827
824
827
826
829
829
832
831
832
830
828
826
825
825
825
828
831
835
834
830
833
829
827
824
825
827
823
827
829
828
832
831
830
832
830
828
825
827
829
829
833
835
835
834
834
829
825
826
825
823
825
828
828
831
837
836
833
832
831
827
827
826
823
826
826
831
831
828
831
829
829
828
829
828
829
831
833
836
835
833
833
832
832
831
832
832
833
834
834
837
839
841
840
843
845
844
841
844
846
847
853
854
859
859
862
864
867
866
865
865
862
863
864
862
861
863
859
855
853
846
844
838
838
834
835
839
840
840
840
835
830
830
823
825
826
825
828
831
829
831
832
832
829
829
826
826
827
828
832
831
835
838
838
836
834
838
846
854
866
887
908
938
965
989
1009
1004
982
943
888
829
775
727
688
666
664
677
700
724
743
756
766
776
792
807
822
831
843
845
846
846
842
842
837
841
843
845
850
852
856
857
857
854
852
852
851
853
855
855
860
861
863
864
860
860
862
860
859
859
862
864
867
870
873
874
873
874
872
871
871
870
872
875
878
880
882
883
886
886
885
887
889
888
891
895
897
903
906
907
909
909
909
914
915
920
922
928
930
933
940
948
948
952
958
957
961
961
965
971
975
978
980
982
983
981
979
983
983
978
977
977
981
979
976
972
967
957
951
943
935
933
928
923
919
915
907
904
898
888
881
875
872
870
867
869
867
865
866
865
863
860
858
856
854
855
853
852
854
856
857
857
855
856
854
851
851
849
850
853
851
851
855
854
854
851
854
853
850
849
852
852
855
856
855
854
856
858
854
854
856
851
849
850
854
856
856
855
852
853
848
852
851
850
852
849
853
849
854
851
850
848
849
844
841
843
840
840
842
848
850
850
847
845
842
841
841
839
838
840
841
843
846
843
844
845
841
840
840
835
837
837
837
841
841
841
839
838
837
836
836
834
838
836
840
841
843
841
842
839
837
837
830
833
836
836
836
838
844
842
840
839
838
837
836
833
836
838
838
837
840
838
836
837
837
837
832
836
834
839
838
839
839
839
838
837
837
834
833
834
832
837
836
840
840
841
843
840
839
837
839
833
833
836
837
839
841
839
841
839
839
836
836
836
834
837
839
837
840
839
834
835
836
833
836
833
837
837
842
843
844
842
843
837
832
829
834
832
830
833
837
839
841
839
838
837
840
836
836
836
835
836
839
837
842
839
837
839
838
837
838
837
839
840
847
852
857
859
858
857
858
855
859
860
861
867
875
876
876
876
873
870
869
863
859
857
854
856
857
858
856
852
848
843
841
838
836
832
834
839
839
838
838
834
833
832
828
830
826
828
829
830
834
837
835
837
835
835
834
831
830
829
832
833
839
842
849
854
863
879
899
918
944
973
997
1010
1008
987
957
912
862
815
769
730
702
691
696
711
735
757
776
789
797
807
815
823
832
834
841
842
844
841
844
844
848
847
846
843
846
845
846
847
850
852
851
853
856
857
855
856
855
854
856
858
861
862
864
865
863
861
862
862
860
860
863
865
870
871
873
874
875
878
877
876
875
876
877
881
884
884
889
892
893
895
896
894
895
896
900
902
912
914
917
918
923
926
928
932
935
938
941
947
951
957
963
965
968
970
970
973
972
971
973
977
980
982
983
986
985
987
983
980
978
975
974
969
969
962
957
954
944
940
931
924
914
910
902
899
894
891
890
884
879
875
866
864
860
857
853
854
854
853
852
851
849
846
843
842
841
842
841
843
846
845
847
847
845
846
844
845
843
840
839
842
844
846
850
848
848
845
842
842
841
841
839
843
846
848
849
850
848
850
847
845
844
841
840
842
841
843
846
846
845
840
838
834
835
833
833
833
833
838
836
838
834
837
834
831
831
827
831
833
833
833
833
834
832
830
829
826
825
822
822
824
826
830
833
832
829
829
829
828
826
824
824
827
826
828
830
830
829
829
826
822
821
822
824
826
825
827
830
830
829
825
824
822
821
821
821
826
827
828
830
827
827
827
825
824
821
819
818
820
823
826
829
824
825
826
824
824
824
823
822
822
825
826
829
828
824
825
822
824
824
824
822
823
825
827
830
830
829
827
825
821
823
823
824
825
830
828
832
831
829
830
825
825
825
821
821
822
826
824
829
826
827
828
828
825
822
823
823
825
826
828
829
828
828
829
828
827
827
827
827
828
831
830
830
831
831
830
828
828
823
823
823
826
828
827
832
832
832
839
837
838
838
840
842
845
846
849
855
857
861
862
863
859
858
857
857
855
851
855
852
852
850
849
844
841
835
828
825
827
830
831
831
828
833
830
828
822
822
818
818
817
818
823
823
823
824
825
823
819
818
822
819
823
823
827
827
828
828
827
826
834
843
858
879
908
939
964
986
992
972
935
881
825
768
721
682
655
655
667
690
714
735
751
762
771
784
795
806
819
824
832
835
833
831
831
831
832
834
830
833
840
840
843
848
847
844
846
843
839
840
837
841
844
846
850
854
853
851
852
854
851
848
848
847
849
852
856
860
859
863
859
859
856
856
859
857
861
863
871
874
874
876
876
877
874
874
878
881
886
891
896
900
906
908
911
912
914
915
917
918
926
929
938
941
944
948
953
955
957
959
958
961
966
969
974
977
979
978
978
975
974
972
972
971
969
964
964
962
959
951
944
938
929
924
914
906
903
900
891
890
885
881
871
867
865
859
853
852
852
851
851
853
849
847
843
846
845
844
844
842
841
842
844
847
846
847
843
844
841
836
834
834
835
838
844
844
846
845
844
843
842
840
839
835
837
841
841
842
844
844
842
840
841
842
838
841
841
842
843
843
844
841
840
837
835
833
834
835
832
838
836
841
840
838
839
834
833
831
830
828
828
831
835
838
837
837
835
836
834
830
829
832
830
833
833
834
836
833
832
828
826
829
828
828
830
830
830
834
832
831
828
828
827
824
823
825
827
830
834
835
835
836
833
832
826
825
824
828
829
824
830
834
831
833
835
832
830
831
829
828
831
826
833
833
834
834
833
833
831
828
823
824
825
826
832
835
834
835
834
832
830
828
826
828
827
829
830
833
834
833
834
832
831
829
832
830
831
833
835
835
838
834
833
833
832
830
830
831
828
832
837
837
838
836
838
836
834
832
831
831
833
835
835
838
841
839
836
835
835
835
836
835
832
836
837
842
843
839
839
840
838
835
838
839
838
838
845
847
847
854
853
854
855
848
854
855
859
866
869
872
873
874
875
870
868
866
857
857
856
859
859
860
859
856
855
849
845
839
838
838
834
837
834
837
839
837
835
833
831
827
826
829
826
832
833
834
835
837
835
832
832
826
830
832
834
837
837
839
840
844
849
854
868
886
907
935
967
993
1012
1012
999
964
918
866
814
768
728
701
695
703
720
744
765
780
794
803
808
822
829
836
838
842
843
843
845
845
847
843
843
848
846
847
851
851
852
854
857
858
860
854
857
855
856
854
852
859
859
860
866
863
864
860
862
860
862
862
861
866
869
869
871
871
871
867
871
872
876
877
878
884
885
885
890
893
894
894
894
895
896
900
900
905
908
913
917
919
924
924
924
926
931
934
938
945
948
955
958
963
963
966
968
969
968
974
972
976
980
979
981
984
986
984
984
983
978
975
972
969
970
967
960
955
946
937
930
923
916
910
908
903
902
895
888
883
879
875
871
868
861
856
855
855
856
856
856
855
857
852
853
850
848
847
849
849
847
848
850
847
846
846
847
843
843
842
844
846
850
852
854
854
854
851
849
848
845
846
847
850
850
853
855
850
850
852
849
848
846
846
845
848
847
851
850
851
848
845
846
844
844
843
844
845
844
846
844
844
842
840
840
834
835
832
832
833
838
840
846
844
843
837
838
836
835
833
833
834
836
838
836
838
835
835
837
835
832
833
836
835
837
839
840
837
837
837
834
829
830
829
827
833
834
834
839
834
836
834
831
831
831
827
830
828
831
836
835
838
837
833
831
829
827
828
830
832
832
834
833
834
832
835
832
834
832
830
832
833
833
834
837
838
837
833
831
829
828
830
828
830
829
832
835
837
839
836
837
833
833
834
832
833
833
837
839
835
836
837
834
833
833
832
834
832
834
837
834
834
837
836
835
833
830
831
833
834
837
837
842
840
839
838
833
831
829
830
830
833
835
836
839
837
834
834
837
835
834
834
833
836
837
837
838
835
836
835
835
836
835
836
839
842
845
852
854
851
851
851
852
852
853
854
859
864
867
868
870
873
875
869
867
864
854
851
856
856
856
856
851
847
846
839
838
835
833
830
834
831
833
836
834
830
831
828
827
822
821
824
826
828
829
833
831
830
827
828
825
826
826
825
829
830
830
836
842
851
862
881
903
926
955
977
989
984
960
921
870
817
769
725
697
683
689
708
731
755
771
788
806
816
826
831
834
833
833
834
833
833
837
843
846
845
846
848
847
846
847
845
848
849
851
854
856
854
849
853
854
854
855
855
853
856
858
862
861
862
862
863
859
857
858
858
862
864
866
868
872
868
873
872
872
869
873
876
880
880
884
885
888
890
892
891
892
895
895
898
898
907
911
915
920
922
927
930
930
933
936
941
941
944
952
956
961
964
964
964
962
962
963
967
967
968
968
972
975
971
971
969
962
958
951
947
941
936
932
926
922
918
913
904
897
891
884
880
874
871
869
870
868
863
859
856
851
846
842
847
846
848
848
852
850
850
850
844
843
843
840
841
841
842
846
845
847
845
846
845
844
840
841
841
844
844
845
848
848
847
847
847
844
844
843
843
840
845
849
850
852
851
851
847
842
845
843
838
841
841
841
845
843
843
846
843
838
834
833
834
836
835
836
838
838
837
834
837
833
833
833
832
829
834
834
838
837
838
832
835
829
827
826
831
827
830
834
835
833
833
834
832
829
829
827
828
827
830
835
834
831
830
835
834
830
830
825
826
831
829
830
834
833
835
835
832
830
827
823
824
825
827
831
833
836
836
835
834
831
828
826
828
828
829
832
832
835
834
834
832
831
831
829
829
828
830
832
834
832
831
831
826
827
827
831
830
828
831
834
834
836
836
834
834
831
832
831
831
831
833
833
833
833
836
836
834
831
831
831
827
826
830
832
833
833
833
835
832
837
834
831
834
836
838
838
841
841
841
834
837
836
834
831
830
830
832
835
839
839
841
842
838
836
837
837
838
838
842
848
851
851
856
854
851
852
855
856
858
861
863
866
868
870
866
863
860
855
854
854
854
855
854
847
846
838
838
836
833
834
831
828
827
829
832
832
832
832
833
832
830
828
830
829
824
829
829
832
829
829
833
836
835
835
833
833
837
841
849
863
875
901
923
954
980
998
997
970
929
877
821
767
722
692
681
681
704
726
746
763
777
791
806
819
832
843
849
850
850
848
847
843
846
847
851
852
856
855
855
857
856
855
853
854
854
858
860
865
864
866
868
868
868
866
864
863
862
864
868
868
871
872
875
875
873
873
873
872
871
873
874
880
883
885
884
884
885
885
889
891
890
894
897
902
906
910
910
913
915
916
917
920
921
924
929
930
940
945
947
952
953
955
957
958
961
963
969
972
976
978
978
979
979
978
978
978
977
978
978
979
980
976
975
968
960
954
951
945
937
935
929
925
922
916
911
908
902
894
888
883
881
875
874
871
873
872
872
868
867
866
868
863
865
863
864
863
866
868
864
865
862
859
859
859
859
863
864
862
865
866
865
864
867
862
860
861
859
860
859
863
865
868
867
868
867
867
864
859
863
864
865
866
866
866
867
866
862
861
856
854
856
856
856
862
864
864
863
859
858
857
855
854
852
853
854
852
855
856
853
859
857
852
852
851
849
850
849
849
850
851
851
850
850
850
849
849
847
844
848
850
852
855
854
854
851
852
847
844
842
844
844
851
849
853
853
853
851
851
848
847
847
846
846
846
850
850
850
847
845
844
844
846
845
848
846
849
849
854
853
851
853
847
844
843
841
842
845
847
851
852
853
853
850
847
847
846
844
843
843
848
849
853
852
849
849
847
847
847
845
846
846
850
851
849
850
851
848
849
845
847
845
845
846
851
851
854
854
853
853
851
848
849
842
845
848
848
848
850
852
852
852
851
850
850
848
847
851
851
851
852
850
849
850
848
847
846
847
846
850
850
853
854
853
853
855
850
848
848
847
848
852
849
854
859
861
862
865
869
868
867
867
865
869
872
878
880
882
883
883
882
879
881
877
874
875
871
871
872
874
874
867
865
860
854
850
847
847
849
851
856
854
854
850
849
848
847
844
841
844
843
844
846
847
846
845
843
843
844
842
844
845
843
847
850
851
850
851
850
853
859
874
893
919
947
977
1004
1017
1013
990
946
893
838
785
740
709
700
712
732
761
779
796
810
820
833
842
848
855
856
856
857
857
856
857
857
856
858
855
857
862
866
867
871
870
872
869
871
867
866
864
864
865
867
871
877
877
876
877
878
877
873
876
874
876
880
883
880
883
883
882
885
886
887
889
888
893
894
895
900
901
903
902
898
899
902
901
906
911
918
923
929
932
934
937
938
940
942
945
947
952
954
960
965
964
967
971
974
975
978
978
981
987
987
990
995
990
991
990
986
987
979
981
979
979
977
973
971
963
960
951
947
935
932
921
914
908
904
903
904
897
895
889
885
880
880
874
873
872
871
871
871
867
866
863
863
861
859
861
858
861
864
865
866
866
862
865
865
860
862
859
859
862
860
861
867
867
862
863
863
862
862
858
861
860
864
867
868
867
864
869
865
866
862
863
862
864
867
866
867
866
863
860
859
859
858
859
854
857
860
859
861
861
858
860
854
855
853
851
850
850
851
852
853
853
854
854
849
847
849
846
846
850
849
852
854
856
851
846
848
848
847
848
849
847
849
851
855
854
854
854
851
850
848
847
846
849
849
852
856
854
855
849
851
843
845
844
845
847
845
847
853
850
846
845
842
846
847
846
844
848
850
851
854
854
853
853
851
847
846
842
842
842
846
849
852
854
850
848
847
847
846
847
843
845
843
845
849
849
849
848
846
847
846
841
843
848
847
851
849
848
846
845
843
843
842
842
842
844
845
848
850
849
849
849
845
844
846
842
840
842
848
846
851
850
851
848
846
845
843
842
842
846
842
844
849
847
847
850
846
846
845
846
845
844
848
850
854
849
849
848
846
849
847
843
841
845
846
847
849
851
851
851
852
850
851
848
846
846
849
850
854
860
857
859
860
862
861
862
865
869
872
876
883
881
884
883
884
879
879
873
869
868
867
869
870
866
868
866
857
853
849
843
841
845
848
847
850
849
844
843
839
836
834
834
832
835
837
838
841
844
839
840
835
836
837
834
834
837
839
843
846
848
851
851
858
868
886
907
931
964
988
1004
998
972
927
871
813
760
716
685
673
682
702
729
752
769
785
795
805
820
831
837
843
845
847
848
850
851
853
851
853
854
852
851
851
853
854
854
855
860
863
862
862
860
860
859
857
860
862
864
867
869
869
868
870
869
868
868
866
867
869
872
876
879
880
879
878
879
880
881
882
886
889
893
896
896
900
901
901
903
905
908
911
916
920
925
929
931
937
939
941
946
947
953
954
960
964
969
975
979
974
976
976
976
975
978
980
985
988
990
993
987
984
982
979
974
968
961
956
952
948
945
939
932
930
921
910
905
897
893
882
880
877
876
874
869
867
864
863
860
856
856
854
857
860
860
860
862
859
854
856
851
851
849
844
850
853
855
858
856
856
855
854
854
852
852
853
853
855
856
857
859
857
857
857
855
853
851
853
853
857
855
856
857
854
854
853
850
849
847
846
845
848
849
853
852
851
848
849
846
843
841
842
841
843
845
848
850
848
847
845
844
844
839
838
841
840
841
843
841
843
843
838
841
837
837
835
836
834
837
835
838
837
836
834
835
831
831
832
834
836
836
840
837
837
836
835
834
836
829
833
831
835
837
838
838
838
840
836
833
828
833
830
829
831
835
836
836
834
833
834
832
832
826
827
828
831
835
834
835
836
835
835
833
833
830
831
832
835
835
836
841
840
840
835
835
834
835
833
836
837
838
836
838
835
835
836
837
837
833
836
833
838
841
844
841
845
838
838
837
837
837
837
839
841
841
843
847
845
843
842
843
843
841
841
841
842
842
843
843
844
846
844
840
838
839
842
843
841
847
844
846
844
847
846
846
846
842
842
849
852
858
861
868
865
867
866
864
863
865
869
871
879
880
881
880
881
882
873
869
868
867
867
867
869
868
867
862
859
857
852
848
843
844
843
844
845
846
846
847
840
843
838
839
839
836
841
838
842
839
843
844
843
843
843
843
842
839
843
844
846
852
858
866
881
904
927
958
990
1017
1030
1021
998
955
903
842
785
737
702
683
687
705
731
754
772
788
801
819
831
841
847
851
854
854
854
853
856
856
858
860
864
862
860
859
859
859
862
863
865
866
868
869
869
872
871
869
866
868
868
871
871
873
878
881
881
883
878
878
878
878
879
881
882
882
886
889
889
891
891
891
893
891
894
897
900
907
908
908
913
912
912
911
910
917
921
925
931
937
942
946
948
951
955
957
959
962
966
969
974
977
983
987
987
990
992
994
995
994
996
996
999
999
1000
998
996
994
988
984
979
973
967
961
960
952
949
940
936
927
921
914
904
899
895
890
890
888
884
883
881
879
876
872
870
864
864
868
863
865
865
866
866
863
863
858
860
860
858
859
859
862
864
864
864
861
860
861
859
860
859
860
864
863
865
866
865
864
862
861
858
859
858
862
864
862
867
869
868
869
865
865
861
859
859
860
861
860
864
862
854
856
858
855
853
852
849
851
855
854
855
854
854
848
849
845
843
843
845
847
848
847
853
854
853
852
849
848
845
846
846
843
843
844
849
849
850
848
848
846
848
845
846
845
849
846
851
851
849
849
848
847
844
840
839
844
845
849
846
850
850
849
848
847
845
845
842
842
846
847
847
849
852
850
851
851
848
846
844
841
846
848
851
854
852
851
848
847
844
846
844
845
847
849
849
846
845
851
847
846
841
841
839
843
846
848
852
850
851
853
848
850
847
842
847
846
849
845
850
848
846
844
845
845
845
842
844
845
846
847
850
847
846
851
846
846
845
845
844
844
846
849
850
850
851
849
851
848
845
844
841
841
845
846
849
845
848
849
848
847
845
846
845
846
850
848
849
849
847
845
842
839
843
842
844
847
846
853
854
858
859
859
861
861
862
862
865
866
867
867
872
875
882
882
883
883
881
880
878
877
880
880
878
875
874
873
872
866
859
855
852
848
847
846
847
849
844
845
846
843
840
838
834
835
839
838
839
840
840
842
841
839
838
836
836
837
841
841
844
844
844
844
844
844
844
852
864
882
906
934
965
993
1011
1013
997
958
907
849
793
742
701
689
686
700
722
748
768
784
796
808
820
832
840
846
851
850
850
849
849
851
849
850
849
854
856
860
859
861
862
862
860
860
857
855
856
857
861
863
867
869
872
871
868
866
864
862
864
865
868
872
872
876
876
878
878
879
874
876
876
879
882
879
882
888
889
885
889
886
890
892
894
894
900
906
911
915
917
919
925
925
925
928
932
934
937
942
949
956
961
962
967
968
970
972
975
977
980
983
985
987
989
991
988
985
980
984
980
981
982
977
973
968
968
956
949
941
933
924
917
911
906
905
902
898
892
889
878
871
865
863
862
860
857
855
858
855
856
856
855
853
850
850
847
849
850
851
854
853
853
853
849
847
847
845
847
846
846
851
854
855
853
852
853
847
848
849
846
848
851
850
853
852
853
854
851
848
849
846
845
846
847
849
850
850
851
842
842
843
838
838
842
842
841
843
846
841
842
841
837
837
836
834
833
834
832
837
838
835
840
841
841
835
836
833
833
832
834
835
837
838
838
837
834
830
833
833
834
835
835
836
838
836
836
836
834
830
829
829
826
827
832
830
832
834
834
834
834
832
829
829
828
828
829
831
832
837
835
835
835
833
830
828
829
828
832
833
835
836
835
834
830
829
830
828
826
829
828
831
831
837
837
838
835
831
833
824
823
827
829
832
836
836
837
835
836
834
830
831
830
826
834
832
835
834
835
833
834
834
829
831
830
833
834
835
836
838
835
833
837
833
830
830
832
832
833
834
838
834
835
835
833
833
835
832
833
832
834
833
837
837
835
837
834
833
830
829
829
830
834
835
836
839
838
840
837
836
835
834
833
836
836
841
845
850
850
852
855
854
851
854
854
856
864
867
871
871
872
874
873
872
869
866
864
862
862
862
861
863
859
854
848
842
837
834
830
830
831
835
838
840
837
841
833
831
826
826
827
826
825
831
835
837
839
838
837
837
835
834
836
835
837
842
844
845
846
852
855
868
881
899
923
953
984
1004
1014
1005
979
934
878
824
769
723
691
675
678
697
719
742
763
776
785
799
804
820
831
839
848
851
854
850
851
851
850
853
851
850
856
856
859
860
864
869
865
866
867
866
866
865
863
864
865
870
871
873
874
875
875
877
873
874
875
877
877
877
882
882
881
882
884
885
885
886
885
885
888
890
895
896
897
900
899
901
900
901
899
904
908
912
915
920
923
928
928
932
933
933
938
942
947
951
957
961
962
967
967
968
969
971
972
977
980
984
987
992
992
992
990
988
985
984
982
984
979
979
981
978
974
972
963
958
948
941
934
928
924
920
917
911
908
904
897
889
885
880
878
877
877
876
873
876
872
871
868
862
864
859
860
860
863
863
866
867
867
866
867
863
859
858
856
858
861
864
864
866
869
869
866
864
864
861
860
863
865
867
867
869
867
870
866
865
864
865
863
862
864
864
863
869
866
864
866
863
859
858
855
856
859
860
862
862
859
859
858
854
854
851
851
849
853
852
855
854
852
854
851
853
849
850
848
848
847
848
853
855
857
852
849
849
848
849
846
844
849
852
852
854
852
851
850
845
849
849
845
845
848
846
851
855
854
853
852
851
850
849
849
849
851
849
852
851
852
848
848
846
845
847
843
845
845
849
847
853
854
850
854
849
850
846
844
845
849
848
849
851
849
852
850
848
846
847
845
849
850
848
851
852
852
850
851
849
846
849
847
847
848
851
853
852
850
849
845
846
846
846
844
846
849
847
848
856
852
853
852
849
849
845
846
846
847
848
848
851
852
851
851
846
848
847
847
847
850
852
852
854
854
853
848
848
851
849
850
850
852
853
856
857
859
854
855
852
853
852
852
853
857
862
863
870
872
871
871
870
869
871
873
877
883
885
890
892
890
889
885
884
879
876
872
873
874
873
874
872
865
863
860
856
852
851
850
851
851
850
852
851
851
850
850
848
846
842
840
844
844
846
847
847
846
849
845
843
845
844
843
844
848
852
860
869
883
895
919
942
968
992
1006
1009
995
963
916
867
814
769
733
710
700
712
729
751
771
789
801
812
826
837
847
855
858
858
858
853
853
854
860
862
862
865
865
865
861
863
859
862
865
867
870
873
870
870
869
871
871
870
869
866
870
873
877
877
877
879
880
879
879
878
878
879
878
882
886
886
886
887
889
887
887
889
891
892
892
900
900
903
905
907
907
907
908
910
910
913
917
923
929
935
940
940
944
946
949
952
952
957
962
967
973
978
979
982
979
983
983
984
983
986
984
984
988
989
984
982
978
971
967
962
955
947
945
941
935
933
925
919
915
905
898
895
889
885
881
877
875
874
874
873
869
869
865
862
859
858
859
858
860
862
858
859
859
855
857
855
854
856
854
855
857
857
856
859
859
859
854
851
852
853
854
855
856
861
859
860
859
856
855
853
853
853
856
856
856
855
858
855
853
853
852
852
852
850
852
852
854
856
853
851
852
849
844
843
846
845
845
847
852
849
850
849
848
846
841
842
840
840
839
842
842
847
842
845
844
842
841
838
836
836
838
840
841
843
841
839
837
836
837
835
834
835
835
836
839
844
840
842
840
833
836
834
831
828
831
833
836
837
837
837
831
835
837
837
833
831
833
836
839
838
839
837
836
835
836
834
835
834
835
838
838
841
836
837
836
833
832
830
833
834
834
837
838
837
839
836
838
832
837
832
831
831
831
834
837
837
841
841
839
835
834
833
832
834
835
836
837
839
836
837
839
835
832
830
832
833
836
836
838
839
843
840
838
837
834
832
834
832
833
836
840
841
842
838
840
841
836
832
830
832
836
838
840
841
841
837
835
836
840
841
838
841
844
846
853
855
853
853
853
857
853
852
854
862
865
869
873
877
877
872
873
869
867
864
860
857
856
856
853
856
853
849
843
842
839
839
839
835
837
840
842
841
840
837
832
834
831
826
827
831
831
832
833
835
836
835
835
833
834
834
834
836
836
839
842
844
848
858
870
884
901
920
943
967
987
993
983
951
907
855
804
756
714
685
675
677
695
717
742
758
769
779
794
804
816
828
836
842
842
845
845
847
843
845
846
850
851
850
848
853
852
855
858
858
861
860
859
858
855
858
857
859
860
865
866
869
869
870
867
868
869
865
866
867
869
872
871
876
874
876
875
876
880
877
872
878
880
882
884
887
889
889
888
889
889
893
892
895
896
901
904
909
911
914
918
919
920
921
922
925
932
935
938
942
945
949
953
954
955
957
960
962
967
968
972
975
976
974
974
972
968
971
967
967
968
967
964
965
962
956
952
942
939
933
925
917
912
911
906
908
901
898
892
887
880
878
873
870
871
870
870
869
865
865
863
862
861
857
857
856
857
855
858
864
863
863
860
860
858
858
855
855
857
858
861
861
864
864
862
861
859
859
855
853
860
858
864
862
864
864
861
860
858
857
858
856
856
859
862
861
862
863
862
858
859
855
851
849
854
854
854
857
859
857
856
854
847
849
847
848
850
852
852
850
851
850
851
849
847
845
847
847
847
847
846
847
848
849
849
848
843
841
842
842
846
846
849
848
850
847
846
845
843
844
844
842
844
845
846
847
848
844
848
845
845
843
844
846
845
848
850
846
850
849
844
847
842
844
843
843
843
846
845
847
848
851
849
847
843
840
840
841
845
846
844
849
852
852
851
849
847
846
844
845
847
846
846
848
848
845
847
847
845
844
841
845
844
848
849
850
851
850
849
848
845
841
842
842
843
847
848
850
850
850
850
847
845
843
843
844
845
845
845
848
847
846
845
846
843
843
846
846
847
846
849
848
850
850
849
847
844
840
841
845
846
847
849
853
853
852
850
848
848
848
849
851
854
859
861
865
866
871
867
864
865
866
871
875
878
881
880
884
882
882
881
873
869
866
868
865
864
865
866
864
861
857
852
849
846
844
842
842
844
841
846
846
847
844
845
843
842
839
837
836
839
841
842
846
847
845
845
842
843
843
842
845
849
853
860
870
886
902
924
945
971
993
1002
1000
990
954
916
875
829
784
746
719
707
711
719
743
765
781
797
806
819
827
839
846
854
853
850
853
853
855
858
859
859
858
859
859
863
859
862
862
865
867
868
870
872
868
872
870
869
865
865
867
870
870
873
877
876
878
879
876
876
877
877
876
877
879
885
885
885
888
885
883
885
881
885
886
889
895
894
898
900
904
907
908
907
907
907
909
912
919
920
927
932
933
936
936
940
941
946
947
954
958
961
965
971
972
972
973
973
974
977
976
981
985
985
987
987
987
985
979
975
973
971
968
962
958
956
953
947
939
936
929
923
914
906
898
896
894
891
887
884
879
879
875
869
865
862
861
863
863
864
865
866
863
864
859
855
856
853
855
858
863
859
861
862
861
860
862
858
856
857
857
856
857
857
856
861
862
864
862
860
858
856
856
856
860
858
864
861
863
861
856
857
854
856
855
857
856
858
858
858
860
858
857
852
848
850
845
849
850
854
853
855
854
855
851
847
848
847
846
846
846
848
846
847
848
846
845
844
843
843
842
843
845
845
848
852
852
849
847
846
845
840
842
841
841
845
843
848
848
845
846
845
842
841
839
841
843
843
844
844
846
844
842
840
839
839
839
839
840
843
843
846
846
845
843
843
840
839
839
840
841
842
844
845
847
846
843
840
840
838
836
839
839
840
842
844
841
844
842
841
837
836
839
840
837
840
843
842
841
839
841
839
840
839
841
842
843
846
847
845
844
844
841
837
837
834
836
836
840
840
843
845
847
844
844
842
841
839
837
837
842
846
845
848
846
845
844
843
839
839
840
840
843
847
848
848
846
848
845
843
842
840
840
845
848
850
853
855
856
855
857
856
857
857
852
857
856
864
869
873
879
879
877
875
873
871
867
866
863
861
864
863
860
857
853
853
847
845
840
839
839
841
844
844
844
840
838
834
833
832
831
832
836
837
840
841
839
840
836
834
836
833
832
836
839
839
844
846
850
855
862
876
891
915
940
964
990
997
989
960
919
868
816
768
727
696
681
683
698
721
744
762
777
792
798
810
820
824
833
839
843
844
843
848
848
847
850
848
850
851
853
851
851
855
857
860
860
859
859
856
856
858
858
859
862
862
865
868
867
864
863
861
860
860
863
861
865
869
872
873
878
875
877
876
872
877
876
879
878
883
883
886
888
889
890
888
893
891
894
898
902
909
911
915
921
923
926
924
926
928
932
936
944
947
954
957
956
959
960
962
961
964
967
970
975
975
980
978
981
980
981
979
975
973
973
967
968
965
963
958
953
945
937
932
922
918
913
906
903
900
895
895
888
883
883
874
871
866
867
864
867
862
864
862
861
857
857
855
854
853
852
852
852
852
855
857
856
854
854
850
851
847
848
849
851
848
851
856
858
855
856
854
853
851
852
850
851
851
854
856
858
857
854
853
854
851
853
854
856
857
857
856
855
855
853
851
848
847
847
847
852
854
855
852
852
850
848
848
843
842
841
842
844
843
847
849
847
846
844
844
843
842
843
843
841
842
841
844
843
842
844
841
843
842
842
844
842
848
848
849
848
848
845
845
837
836
838
840
840
845
845
848
848
848
846
843
842
836
833
839
840
840
843
848
846
843
843
844
841
841
840
844
843
844
847
847
847
845
842
842
840
842
839
840
843
845
848
851
850
850
847
847
846
842
841
841
844
845
848
853
850
853
849
850
847
843
842
844
846
849
848
852
853
853
851
852
849
849
848
848
850
852
851
851
854
852
850
850
848
847
849
846
853
852
854
856
854
854
848
849
847
849
848
853
851
851
856
854
853
855
857
853
852
853
855
850
857
860
861
862
863
860
857
858
859
862
863
869
870
874
878
877
879
880
882
885
884
885
885
883
884
887
884
886
883
883
879
876
876
874
871
871
868
865
862
861
860
856
854
854
853
849
850
849
850
848
850
850
848
851
852
851
849
846
847
849
849
852
853
856
857
856
856
858
857
854
855
865
875
890
912
939
965
994
1013
1020
1011
983
945
894
844
798
759
728
715
724
737
758
779
795
811
823
836
848
858
862
863
863
862
859
860
860
860
862
864
868
870
868
866
871
875
872
872
872
870
872
873
875
874
877
881
880
879
878
877
875
877
877
880
880
885
885
885
887
886
885
884
881
882
884
887
891
895
898
899
899
898
901
899
901
899
903
904
907
909
916
914
919
919
923
923
924
928
931
933
939
945
951
955
954
957
960
960
959
960
964
968
973
975
978
977
984
984
983
982
983
980
980
981
981
981
978
976
969
961
953
951
945
940
933
932
926
923
922
913
907
902
898
891
886
883
878
877
877
876
876
875
874
870
867
863
864
863
861
863
864
865
865
867
864
862
858
857
858
857
859
860
863
865
868
865
863
864
862
858
859
859
860
860
865
865
868
868
864
865
866
866
867
860
858
864
864
866
869
868
866
865
863
861
860
855
856
861
861
860
859
859
855
855
855
852
852
850
851
850
851
852
854
854
853
851
851
849
846
843
846
844
849
850
854
850
850
849
848
844
845
843
844
844
846
847
847
851
850
849
843
847
845
843
847
847
847
848
848
851
850
847
849
848
844
846
846
849
845
848
849
850
849
846
846
843
840
842
840
843
843
846
849
849
848
846
848
847
846
846
843
844
847
845
848
847
846
844
842
845
845
845
846
846
846
848
849
846
845
847
845
845
843
843
840
845
845
844
851
849
846
846
845
842
842
839
839
841
845
845
850
849
843
845
842
844
844
844
844
843
846
848
848
849
845
843
842
839
841
842
841
841
844
844
848
845
848
850
844
845
844
843
841
843
846
843
850
852
849
847
847
846
846
843
841
846
847
851
850
854
855
858
860
857
858
857
858
863
867
871
876
877
879
880
877
869
872
866
866
864
864
864
869
867
864
859
854
850
847
841
842
841
842
843
846
844
843
840
842
836
835
835
834
835
837
842
844
842
840
842
841
838
839
837
837
839
839
843
846
845
846
850
853
861
871
884
902
926
951
976
991
986
968
935
888
837
790
745
711
694
688
703
721
740
758
770
779
790
801
815
826
839
847
850
854
853
851
850
848
846
850
850
850
853
855
855
860
859
860
859
860
858
859
857
857
863
866
867
869
868
870
867
864
866
865
863
866
867
869
872
871
870
869
874
874
872
875
876
876
878
878
882
883
882
886
888
888
891
894
893
894
896
902
904
912
914
913
915
915
914
916
920
923
928
935
939
947
949
951
952
954
956
961
958
960
962
965
971
976
978
977
980
977
976
978
972
973
972
972
970
972
965
965
957
952
944
941
934
926
923
921
919
914
909
902
898
890
887
881
875
871
871
872
871
871
868
867
865
863
859
857
856
851
856
858
858
860
859
860
857
854
854
852
852
851
852
856
858
858
861
861
855
854
851
855
854
856
859
859
862
863
862
860
860
858
855
855
852
855
858
859
857
859
860
861
859
857
854
854
847
847
854
853
855
856
855
853
851
848
845
845
843
841
844
839
842
845
851
849
847
846
844
845
839
843
844
844
843
847
844
845
844
842
837
841
839
837
840
840
844
845
846
847
845
843
841
837
836
834
837
843
844
847
847
846
845
842
839
841
839
838
837
839
841
842
842
844
842
840
840
838
835
838
838
840
842
846
844
844
843
841
838
838
838
840
838
838
840
843
842
846
840
841
840
839
837
838
838
838
840
844
842
842
842
842
842
840
836
837
840
841
843
840
840
841
843
840
839
836
836
839
840
844
844
849
844
847
845
842
842
840
839
842
839
841
840
841
846
846
845
843
844
841
840
839
844
844
846
846
845
845
841
842
842
842
839
840
842
843
847
850
844
846
846
847
846
846
845
849
853
858
862
865
865
865
865
863
865
868
869
870
875
875
878
879
879
877
878
869
867
867
862
859
861
865
863
859
857
851
848
844
845
843
845
845
848
847
845
848
845
843
844
842
840
838
838
840
843
843
844
847
848
847
850
849
845
845
847
847
852
855
861
877
895
919
943
970
995
1008
1004
986
949
902
850
799
751
721
708
710
725
746
767
783
797
811
826
839
849
858
860
856
859
858
852
856
856
863
860
867
869
867
867
868
867
868
866
865
869
872
871
874
876
877
876
879
877
875
874
877
879
881
883
885
885
884
884
883
882
885
884
885
889
887
894
896
894
895
898
902
900
902
901
903
907
909
914
917
922
921
924
923
924
924
929
931
934
941
947
952
956
957
959
960
964
965
966
967
973
976
981
985
988
989
988
988
988
986
984
985
984
983
983
982
978
974
969
963
955
954
949
945
940
937
932
931
924
921
914
909
903
895
891
888
883
884
883
882
881
879
878
876
874
872
869
869
871
870
870
871
870
871
869
867
865
867
868
866
865
868
869
873
874
872
872
871
869
868
869
868
867
869
871
873
872
873
872
870
870
868
867
870
866
869
870
872
875
872
872
871
870
866
866
865
865
865
866
870
867
868
860
860
859
860
856
859
858
863
864
866
865
866
864
860
857
855
855
856
857
859
863
864
864
865
863
862
859
857
857
856
856
857
859
862
860
861
862
857
856
857
854
854
856
858
861
861
862
862
859
857
856
855
853
854
856
858
862
859
860
859
860
857
856
855
858
858
858
859
858
861
862
860
861
856
859
858
856
855
857
857
859
859
857
857
855
854
857
856
856
856
858
860
862
862
863
862
859
860
858
854
853
854
856
855
856
858
860
861
864
861
859
854
859
856
860
861
862
865
862
861
860
858
862
858
858
858
858
860
862
864
868
864
864
863
859
856
853
855
860
858
861
865
865
865
864
862
858
858
858
860
861
862
859
863
864
865
860
862
860
859
857
858
858
861
865
870
870
874
876
876
874
873
872
875
874
879
882
886
893
898
897
895
891
889
884
885
882
882
882
882
883
878
876
871
866
864
861
858
857
858
860
861
863
862
859
855
855
852
850
849
847
849
857
855
857
856
857
856
855
851
855
852
855
858
859
863
865
866
875
886
900
915
941
969
996
1014
1013
996
961
912
861
806
761
727
711
713
733
756
780
800
813
825
837
847
854
860
862
864
864
862
862
863
865
868
871
871
869
868
870
871
872
877
876
878
876
877
879
879
878
877
875
881
879
882
883
885
885
885
888
885
884
881
881
882
884
889
892
892
894
896
894
892
897
894
893
895
896
900
903
910
912
913
914
915
913
913
915
915
923
924
929
932
937
937
940
938
940
945
945
948
958
959
966
971
974
977
978
977
980
978
979
980
982
988
987
990
989
992
993
987
984
983
981
977
972
967
962
963
955
949
944
936
930
923
917
912
909
906
901
899
898
893
888
885
881
877
870
870
867
870
869
875
875
873
870
869
866
865
866
860
861
863
864
867
868
866
866
865
862
861
860
858
862
864
866
867
869
868
868
866
864
861
859
858
861
862
864
866
867
868
866
866
862
860
858
854
855
860
860
858
862
858
858
858
856
856
853
853
855
854
857
855
855
853
854
851
849
845
844
844
847
847
848
850
850
853
849
845
846
844
840
844
843
843
845
845
844
844
847
845
845
843
841
837
838
843
841
846
848
849
846
844
842
842
839
837
841
841
839
842
845
843
843
838
842
836
836
835
836
838
837
838
836
840
841
841
839
839
837
837
838
838
840
843
843
841
841
838
836
837
831
834
836
837
837
843
844
842
845
843
841
840
836
836
835
838
838
840
838
840
842
840
839
837
831
832
831
833
837
838
836
837
834
835
836
834
829
836
835
839
841
842
844
840
839
840
838
834
834
834
835
835
838
841
842
841
842
838
839
835
834
834
837
839
840
841
842
840
837
834
837
834
833
835
834
836
838
843
842
842
841
839
838
836
836
837
836
841
844
850
852
854
856
856
850
851
851
854
857
864
867
868
868
867
868
867
865
862
858
853
856
855
858
858
858
854
851
841
835
831
831
830
829
833
833
835
838
836
833
831
826
826
824
824
826
828
830
829
832
831
830
827
827
825
828
831
830
832
834
836
839
840
842
848
862
873
890
915
941
970
988
988
969
934
882
831
778
731
696
673
667
675
696
721
740
754
766
778
792
802
812
821
832
837
839
842
838
839
842
840
839
837
839
841
842
844
846
852
851
845
850
850
849
843
844
844
844
847
850
853
854
857
856
856
855
852
850
856
858
862
865
866
867
867
866
867
864
864
867
864
867
872
873
876
881
881
883
882
887
885
887
888
893
895
901
907
911
915
921
922
923
924
926
929
931
935
941
946
953
955
954
956
958
959
959
959
962
966
967
970
973
971
967
963
961
958
952
946
945
943
937
936
932
930
922
917
908
901
896
889
881
876
878
875
868
867
864
860
859
851
850
852
851
851
850
851
853
852
846
844
845
846
843
843
844
846
847
847
849
850
850
849
844
842
843
844
841
842
843
849
852
853
854
852
855
850
848
848
850
852
850
854
854
854
851
853
847
850
848
850
848
851
850
850
853
851
850
845
843
842
842
843
843
843
844
848
846
847
847
844
843
841
839
838
841
839
840
842
843
842
840
838
839
839
839
839
839
841
841
843
844
840
839
840
836
836
836
834
833
834
837
838
841
839
840
840
838
835
833
834
832
834
840
841
844
841
841
840
837
836
837
834
837
836
839
843
842
841
840
836
839
837
834
836
839
838
840
842
843
842
845
839
841
837
837
835
834
837
840
839
842
840
840
844
840
838
835
834
837
839
837
842
840
843
841
839
839
838
837
840
841
844
843
846
843
846
840
836
840
837
835
836
837
839
838
840
842
843
842
840
839
836
839
839
838
841
843
843
844
845
846
845
843
841
843
845
841
841
846
848
848
848
848
846
844
842
842
843
845
845
851
853
862
862
863
861
862
860
863
865
864
871
872
874
879
877
879
877
876
871
869
865
866
866
869
866
868
866
863
857
852
846
847
841
842
844
844
847
848
848
848
846
843
842
835
834
835
837
840
841
843
842
842
841
840
839
841
838
840
841
843
848
849
853
857
865
880
899
925
952
982
1006
1016
1009
983
943
891
840
789
746
711
697
702
719
743
767
784
798
812
820
832
836
844
845
848
850
853
854
854
857
856
855
856
855
857
856
860
860
862
867
869
868
867
867
868
866
863
863
866
868
869
869
873
870
873
871
872
870
873
872
873
874
879
877
882
880
880
879
882
879
882
883
886
888
892
896
898
899
898
902
898
901
900
897
903
909
912
919
924
927
932
932
928
931
934
939
944
947
953
958
959
958
964
962
966
967
967
970
975
978
980
984
986
982
980
979
975
976
970
968
962
960
955
956
950
947
939
933
923
916
910
903
901
895
893
888
883
880
876
872
871
868
864
858
861
858
863
863
864
861
859
858
856
856
853
855
856
855
859
860
861
861
860
860
858
854
855
855
850
856
858
860
863
863
862
861
861
857
857
855
858
853
859
859
862
862
861
862
861
857
858
855
856
859
858
857
862
856
855
855
851
851
850
849
849
853
852
855
856
854
853
852
851
850
846
843
846
847
846
847
853
851
848
845
843
846
841
843
842
842
842
847
848
849
847
847
843
843
842
840
841
841
841
841
846
844
843
843
841
840
837
837
839
840
842
845
845
844
839
844
842
839
840
833
833
838
837
840
842
844
843
842
841
840
836
834
835
836
840
841
841
838
842
841
837
836
833
832
834
836
839
839
841
844
841
840
836
835
835
833
832
833
831
833
836
834
834
835
834
831
835
834
834
830
835
836
839
835
834
833
827
828
827
827
829
832
833
833
835
834
835
832
830
830
829
826
827
827
828
831
829
832
830
831
828
829
827
828
826
830
832
832
836
833
833
833
828
830
828
827
828
829
832
836
838
837
838
837
836
835
840
840
842
843
845
850
853
856
857
859
859
861
858
860
858
861
861
864
861
857
855
851
846
847
846
842
840
833
834
833
833
832
830
831
827
822
818
819
820
819
822
822
825
824
823
821
821
821
817
820
817
819
822
819
825
824
825
826
825
826
824
823
829
838
850
866
889
914
936
960
974
974
955
919
873
824
778
734
701
677
673
683
699
717
735
750
766
782
796
809
824
828
833
835
832
830
827
826
830
830
833
838
834
837
835
837
839
836
838
836
839
841
843
845
848
847
847
849
849
848
846
843
845
845
847
850
852
855
854
854
850
849
848
846
853
855
857
859
863
864
864
861
860
864
864
866
866
873
873
880
885
886
886
890
889
893
893
894
896
899
907
909
919
920
925
928
929
930
932
934
936
942
949
949
958
959
959
960
958
956
958
958
958
959
963
964
964
964
958
952
943
936
929
924
918
912
909
906
903
895
890
883
875
869
864
859
856
853
854
854
854
850
851
848
847
842
837
836
834
835
837
838
839
840
838
835
838
834
832
833
834
834
837
839
838
838
838
838
836
834
836
830
831
832
835
837
840
840
838
836
834
836
833
831
827
831
831
833
835
835
834
833
832
831
830
825
826
826
827
832
833
832
831
830
827
828
820
822
823
824
825
827
831
829
825
823
827
826
820
821
820
822
823
825
828
828
826
826
823
819
818
815
818
820
822
819
823
823
826
823
822
821
818
817
819
818
821
826
827
821
819
824
823
819
820
814
814
816
816
822
825
825
827
824
823
823
819
819
818
822
820
824
824
825
823
822
820
820
817
815
816
819
825
826
829
827
827
828
820
819
818
817
818
819
821
823
824
825
827
826
826
824
825
821
821
819
824
824
823
825
828
829
827
824
823
822
817
822
824
827
830
828
828
826
827
824
824
822
823
826
830
828
832
828
831
831
831
829
827
825
825
829
829
832
837
839
844
843
845
845
846
846
846
849
854
857
858
866
865
864
859
861
860
856
856
856
855
856
859
856
857
853
847
844
837
832
828
831
830
831
834
835
836
835
833
828
826
823
822
825
825
826
830
824
829
827
828
827
826
827
827
828
829
831
835
835
834
834
840
845
850
866
883
911
939
968
993
1009
1005
983
944
900
845
792
745
707
687
687
701
721
746
764
775
788
800
811
823
835
839
846
847
845
843
842
841
843
843
844
843
845
847
851
854
853
856
855
853
855
854
856
853
857
858
854
860
858
857
859
858
861
859
856
859
858
860
866
871
870
870
868
870
869
869
868
871
870
874
879
881
882
882
886
886
886
886
887
890
893
897
899
904
908
913
917
917
922
921
923
927
931
936
939
944
948
953
952
949
950
954
959
961
962
968
972
974
975
977
975
974
974
974
968
966
962
959
960
956
952
952
947
938
934
927
921
915
906
899
897
898
893
888
883
872
867
861
862
860
859
861
859
860
860
859
855
854
849
844
842
841
844
847
846
852
853
851
851
851
847
845
843
844
846
848
851
852
849
847
851
848
846
849
849
848
845
850
852
855
854
850
849
849
849
847
845
846
846
847
852
851
852
849
852
850
847
845
844
843
845
844
843
845
845
844
845
845
842
841
838
835
836
837
840
843
843
838
840
834
832
830
831
829
833
834
835
838
839
839
836
835
835
830
828
830
829
832
831
833
834
834
834
834
829
829
830
830
830
833
833
835
837
835
836
834
831
829
830
828
832
833
834
837
837
838
836
832
831
826
823
826
829
829
832
831
834
836
833
833
831
829
829
832
831
830
833
831
835
832
829
827
827
826
829
829
829
831
832
832
834
832
832
831
829
829
829
827
827
833
831
834
836
836
834
832
829
832
829
827
829
831
831
830
832
830
832
832
832
832
832
831
830
833
836
835
836
835
831
831
830
828
827
828
829
835
833
836
839
837
836
833
834
833
832
829
830
833
837
844
843
846
851
848
850
846
851
853
856
861
865
867
871
871
872
867
866
861
856
852
853
852
855
856
854
848
846
837
834
832
832
829
829
830
831
832
831
832
829
828
825
821
819
818
818
822
822
825
824
821
825
823
821
821
821
818
821
823
825
828
828
830
832
834
839
849
863
883
906
933
960
980
987
973
942
895
842
793
747
710
682
673
681
704
724
744
762
773
783
792
806
818
827
828
833
836
837
834
839
838
836
833
834
837
833
837
838
842
845
842
845
845
845
844
839
843
844
847
851
854
853
849
852
850
850
847
846
849
852
854
856
858
860
862
861
862
857
855
858
859
860
860
867
867
871
874
876
876
876
874
876
878
881
885
888
892
896
898
900
904
907
906
911
914
920
923
926
931
935
937
941
947
947
946
947
950
953
958
960
965
967
968
966
965
964
960
959
959
957
959
954
955
955
947
942
937
931
921
913
907
898
895
896
894
888
883
877
870
860
859
852
851
851
849
847
847
850
847
846
842
841
840
833
832
836
835
840
838
839
837
836
837
837
834
836
834
835
833
835
838
840
835
833
833
831
828
830
828
831
832
836
835
836
838
836
835
832
829
830
829
824
827
827
828
833
833
831
832
829
827
827
825
826
826
827
827
828
822
821
819
819
814
815
817
820
817
820
823
825
823
820
819
818
817
816
813
813
813
818
820
819
816
815
815
812
814
814
812
812
812
812
819
817
819
814
815
813
812
812
809
808
817
817
819
821
819
816
814
812
808
810
809
810
813
816
818
819
819
815
816
814
809
812
810
811
810
812
815
817
817
818
819
815
812
813
812
811
814
813
817
817
816
815
811
811
808
809
810
810
810
816
818
820
820
818
815
814
811
812
809
807
812
814
817
816
816
817
817
813
812
810
813
814
814
814
819
820
821
819
818
817
818
817
817
819
819
818
824
823
825
823
822
820
818
816
814
817
819
822
824
822
827
826
829
832
835
833
835
834
834
838
841
847
847
851
848
849
848
847
846
846
844
844
844
841
838
840
837
834
826
819
819
816
813
817
821
820
821
817
816
814
812
809
808
806
807
812
812
815
814
816
814
814
810
811
813
813
815
818
821
821
823
822
822
831
836
850
871
894
921
950
975
987
983
952
906
850
792
739
690
657
639
643
657
684
712
729
744
757
767
779
794
806
818
824
826
827
825
825
824
824
825
823
828
831
832
836
838
841
844
840
840
839
839
841
836
838
839
844
846
851
849
850
846
847
845
847
847
849
850
852
858
858
859
858
856
858
857
859
863
862
864
865
871
872
876
874
877
875
874
879
880
883
890
893
896
901
902
906
906
906
908
911
912
914
923
927
933
940
942
946
945
947
951
949
951
954
960
957
965
963
962
961
961
962
956
953
955
947
950
947
947
946
938
934
927
922
915
907
901
896
895
893
888
887
883
878
874
869
866
858
857
853
857
854
856
857
851
852
850
845
846
845
844
847
847
849
851
851
850
850
850
846
847
841
840
843
842
844
848
851
851
849
850
849
847
847
848
847
847
848
850
849
852
849
851
848
847
846
843
848
845
849
851
853
850
850
848
843
841
842
841
842
841
843
843
840
838
837
839
836
836
832
834
832
834
835
840
841
839
839
837
836
835
833
832
832
836
837
838
837
838
836
834
834
829
828
831
830
834
832
838
834
835
834
831
833
830
828
828
831
832
833
837
836
834
835
832
834
833
831
833
832
833
835
837
836
839
837
835
835
832
832
833
834
833
834
835
835
837
837
834
832
833
830
830
832
834
835
836
840
841
839
837
834
830
831
831
827
830
833
836
840
839
838
838
838
837
832
834
836
838
839
842
838
837
837
836
833
832
833
832
834
835
839
841
843
845
842
838
837
836
836
836
834
836
837
838
839
844
841
840
843
840
838
838
841
843
841
848
851
852
852
858
857
856
856
856
856
861
865
871
874
876
874
872
868
865
862
858
857
856
859
863
859
860
854
851
843
842
836
834
833
833
833
836
840
839
838
836
831
831
829
829
831
834
834
833
836
832
836
834
834
833
831
830
831
835
834
837
840
845
849
857
867
891
909
937
964
992
1006
1007
996
965
916
862
807
755
717
698
691
704
726
752
774
786
801
812
821
826
829
839
844
846
852
851
851
852
852
852
853
851
852
853
853
854
856
857
861
860
862
858
859
860
859
859
858
858
865
860
866
866
864
866
865
864
863
866
867
869
871
876
877
878
877
875
876
874
875
878
877
883
888
891
895
893
894
894
895
896
899
901
904
907
911
914
918
923
927
930
933
932
936
938
943
948
953
957
958
964
966
969
972
970
973
973
974
979
982
985
988
987
987
988
982
980
976
973
969
965
964
963
957
952
943
936
930
922
913
909
902
900
894
893
887
884
878
873
870
864
861
858
858
860
860
862
862
861
860
857
854
851
850
848
846
850
852
851
854
855
854
853
855
853
850
851
850
852
853
856
857
857
855
854
851
849
851
852
851
854
857
856
860
858
856
855
852
854
852
849
849
848
851
851
852
854
853
851
848
850
848
846
848
848
849
848
850
851
851
846
845
841
842
838
843
841
841
840
841
842
843
839
838
839
835
835
835
837
836
840
840
835
839
843
836
836
835
835
831
833
836
841
840
838
838
838
835
836
832
836
835
836
838
836
839
834
838
839
838
835
833
831
833
832
832
836
839
840
841
841
837
836
829
829
832
833
834
836
838
839
837
836
835
834
835
831
835
835
835
838
840
841
840
835
832
830
831
828
828
831
837
836
839
839
838
837
837
834
833
831
834
833
840
838
836
835
835
836
833
830
831
830
829
835
836
835
838
839
838
835
833
829
829
828
829
832
834
832
835
837
836
836
833
833
833
830
831
831
833
833
834
835
835
836
834
833
832
831
831
832
834
838
841
840
838
840
838
838
838
838
841
846
850
851
854
858
855
860
862
864
867
864
866
864
867
868
871
865
865
860
861
858
855
852
849
849
846
843
840
835
834
836
835
832
834
829
829
831
835
835
834
834
833
831
829
829
826
825
827
824
828
832
836
835
834
835
833
833
834
834
838
845
855
871
895
916
939
965
984
992
986
958
918
869
820
772
730
693
673
672
686
704
727
741
758
774
787
806
822
829
835
842
840
839
834
835
836
835
841
844
849
847
851
851
850
851
851
848
847
849
854
854
857
858
857
859
856
859
858
856
856
860
861
867
868
869
870
869
867
868
867
866
864
866
870
874
877
877
879
880
880
879
879
881
884
890
891
896
903
903
905
907
908
911
912
914
916
923
924
930
939
940
947
947
949
951
949
951
957
962
967
972
976
975
976
980
980
980
979
981
979
978
976
978
979
973
970
967
963
955
950
946
938
936
931
928
923
917
914
908
899
893
885
881
876
876
873
873
873
871
867
862
861
856
852
851
852
851
853
857
855
857
853
852
852
848
847
845
846
850
852
853
857
858
854
855
851
848
848
848
847
851
850
853
857
858
854
854
851
851
849
848
848
848
849
852
856
853
853
853
851
848
850
847
845
847
851
852
852
851
850
848
846
843
841
840
837
841
844
846
848
846
849
844
841
839
837
835
834
834
836
840
841
842
841
837
839
838
834
829
833
835
834
837
839
838
838
840
838
835
832
832
834
835
837
840
840
839
840
840
838
836
836
834
835
834
836
838
842
841
835
836
836
836
836
831
832
836
839
839
842
840
839
838
836
837
837
836
837
837
839
841
842
839
839
839
837
836
832
832
835
836
839
842
843
839
841
835
839
843
841
837
835
839
842
841
842
844
845
846
843
840
841
841
840
841
843
845
848
847
846
846
842
840
839
840
839
842
842
845
848
847
847
849
847
845
844
840
840
843
843
845
851
848
848
847
846
844
846
847
846
850
851
855
858
861
863
862
867
864
864
863
862
867
871
876
879
881
883
886
880
876
874
873
869
865
867
867
870
868
868
864
858
854
851
848
846
847
848
849
850
847
847
846
843
839
838
836
835
840
842
843
845
847
844
844
843
844
838
837
836
841
847
847
854
853
856
862
873
892
911
942
972
1000
1019
1017
999
954
901
843
786
738
706
695
703
728
754
777
796
812
818
829
837
845
847
849
852
853
855
854
855
855
857
856
859
860
860
858
859
861
866
865
869
869
873
870
871
868
867
866
869
872
870
873
875
876
875
878
878
877
876
875
876
875
882
885
888
888
891
889
887
889
890
889
889
894
898
903
907
912
912
914
915
911
912
916
921
922
926
933
940
945
949
952
952
954
955
958
959
965
974
977
981
984
984
986
985
985
987
983
988
988
984
988
987
985
983
980
974
965
961
949
943
942
937
932
930
925
918
911
905
902
896
889
884
880
877
875
875
874
874
867
865
865
863
861
857
853
855
859
861
861
862
862
857
856
854
854
854
858
857
858
862
861
862
862
862
861
860
855
853
858
858
856
860
860
862
861
864
861
859
858
857
858
859
859
865
860
859
859
857
856
855
851
852
855
857
857
859
859
854
855
850
850
851
847
847
850
846
849
847
852
851
848
846
846
842
840
839
843
847
848
846
845
842
841
845
843
843
842
840
840
839
842
847
849
848
846
844
840
840
835
836
837
840
844
848
847
847
846
844
843
839
840
839
837
840
838
843
841
843
845
840
842
841
839
840
839
841
846
845
844
842
841
843
842
840
838
836
841
841
843
847
844
847
846
841
844
844
841
840
843
842
843
845
844
845
845
843
838
837
836
836
838
840
842
848
844
844
843
841
840
839
838
840
839
842
846
848
847
847
845
843
841
841
841
841
836
838
842
843
843
841
841
842
843
842
842
841
840
845
842
843
843
842
841
844
841
841
840
843
842
843
846
848
851
849
846
847
843
843
844
844
845
849
850
853
860
861
864
865
864
865
863
863
865
870
875
879
879
877
879
878
875
870
867
865
864
861
868
868
864
856
852
847
841
839
834
835
839
842
843
843
842
841
840
836
832
830
831
827
831
834
834
835
836
838
834
834
835
834
833
834
836
835
839
839
842
848
856
862
878
892
915
944
972
988
992
976
939
892
834
780
737
701
683
685
702
724
745
771
784
799
812
823
828
833
836
837
839
837
839
840
843
843
847
849
849
849
849
851
851
854
855
857
862
859
863
859
859
859
856
856
857
856
860
864
866
865
864
863
861
863
863
863
861
866
864
871
871
872
873
872
874
871
872
876
878
882
885
889
890
893
895
893
897
892
896
900
905
908
914
922
923
928
933
936
936
940
943
944
950
953
958
964
968
972
975
975
976
976
978
978
979
981
983
983
984
981
981
976
976
969
966
961
959
953
951
949
944
937
930
924
914
907
900
895
891
887
886
881
879
878
874
867
867
862
858
851
852
852
852
855
854
854
849
849
849
840
846
844
846
846
848
851
852
852
850
849
847
843
843
844
845
848
848
849
847
854
853
852
852
849
848
844
844
847
847
848
850
848
849
848
848
845
846
844
845
847
845
846
848
847
846
845
841
840
837
838
839
839
842
842
843
841
839
839
840
836
834
833
833
836
836
836
837
837
836
835
835
831
830
833
834
835
837
838
837
831
837
832
832
830
827
828
827
830
833
833
831
835
831
830
828
827
828
829
829
830
831
833
834
833
834
833
832
830
830
830
831
830
829
835
831
833
835
832
828
827
827
827
828
827
832
832
834
835
834
831
826
827
828
827
827
829
831
833
831
837
834
831
832
830
829
827
831
830
827
827
830
837
836
835
835
834
830
831
833
833
834
836
833
839
838
834
833
832
829
830
830
833
835
839
836
837
837
838
835
832
832
833
830
836
836
838
840
840
840
839
837
835
834
832
834
835
840
837
842
845
844
842
845
847
849
851
855
855
858
859
861
863
861
866
865
867
869
867
869
870
868
870
865
863
864
861
857
851
849
844
841
838
836
835
837
839
839
836
835
834
831
827
830
831
832
833
835
838
838
831
830
827
827
827
829
830
831
834
837
838
836
839
838
837
839
842
854
866
881
905
929
957
983
994
996
973
932
883
829
779
734
702
686
692
713
736
752
771
786
798
813
828
836
843
848
845
846
846
846
842
843
844
846
849
851
850
851
851
854
855
855
856
855
853
854
854
858
862
862
863
862
862
859
864
861
864
865
869
868
872
874
873
869
875
872
870
870
869
872
877
878
881
886
886
887
888
888
889
890
893
893
897
901
906
909
912
913
914
917
919
920
925
927
935
939
944
950
952
955
957
958
960
961
965
968
976
977
979
983
984
984
980
979
975
973
970
970
965
962
959
953
953
950
942
937
932
926
919
914
908
907
903
896
890
886
884
879
874
870
867
866
867
868
867
865
863
862
858
858
855
853
851
849
853
853
856
857
857
855
853
855
850
847
849
851
852
856
852
853
856
856
854
855
852
851
850
852
853
857
857
860
856
856
857
855
853
850
848
852
852
855
856
859
859
856
856
852
849
852
850
850
851
852
851
850
850
851
849
845
846
841
842
843
844
845
846
846
846
846
844
844
840
838
836
840
837
842
841
844
842
843
838
838
838
836
834
834
836
837
840
840
841
841
840
838
836
837
835
836
838
836
837
839
841
837
835
831
832
830
833
832
836
838
840
838
841
840
837
837
834
837
835
836
835
837
836
842
843
843
840
837
830
833
829
828
830
839
838
839
839
839
839
835
835
834
836
834
837
838
841
839
840
839
834
837
833
834
829
834
834
835
838
840
841
841
841
834
838
838
837
839
838
839
840
840
840
837
839
836
835
836
838
836
840
842
845
847
845
847
843
840
840
838
837
835
836
839
841
843
845
844
846
843
839
843
840
841
842
845
847
847
848
847
844
843
842
843
841
843
844
846
855
858
857
858
858
859
860
860
858
860
861
865
867
875
876
878
878
876
875
871
868
867
867
865
868
865
864
862
858
854
849
845
842
844
843
844
847
844
846
845
841
839
832
831
831
832
833
833
838
839
841
840
838
834
833
836
834
836
839
842
841
842
842
842
842
842
844
847
858
870
891
914
938
965
993
1008
1007
989
953
904
852
797
752
714
701
702
720
744
763
782
798
809
819
827
837
844
849
853
851
852
847
846
846
849
848
850
849
855
857
854
860
863
863
856
856
855
855
859
860
860
868
868
868
868
869
865
866
865
865
868
870
872
876
876
877
876
872
875
876
875
872
877
878
880
880
883
886
889
888
889
889
889
886
891
894
898
903
906
908
912
913
911
916
915
918
923
928
929
936
941
942
947
949
946
955
956
961
964
965
970
976
977
981
981
980
979
976
973
976
977
978
978
979
981
970
968
960
956
948
942
935
929
927
919
918
915
904
906
899
893
885
881
874
871
872
871
872
871
866
862
857
856
851
850
849
851
851
853
853
856
856
858
851
851
850
849
846
845
844
845
848
854
852
854
852
853
854
850
849
846
849
852
853
852
850
853
854
856
854
852
848
854
853
854
854
856
855
851
850
845
843
843
840
842
846
851
850
853
854
853
851
848
844
843
840
841
841
842
844
847
846
845
842
842
841
841
841
842
841
843
844
846
846
843
845
840
839
837
836
838
841
842
845
844
843
843
841
837
836
832
830
833
836
836
840
844
842
838
841
836
835
835
834
831
837
836
834
838
839
838
836
832
835
834
831
834
835
837
838
840
839
838
837
837
834
832
830
828
832
832
833
838
840
838
836
835
834
833
833
835
834
835
835
838
840
840
837
837
837
833
833
833
836
838
840
841
840
836
833
832
831
835
834
833
837
839
841
844
838
842
839
838
837
836
836
835
834
838
841
845
842
839
839
841
840
840
833
840
839
841
843
846
845
841
838
837
836
835
830
835
837
841
843
844
846
844
841
843
839
839
842
841
844
848
850
853
852
856
858
858
855
858
858
861
868
872
874
877
875
873
871
868
864
859
858
858
858
858
861
857
851
847
840
842
837
836
836
835
835
838
839
841
840
834
833
835
830
829
827
829
829
833
834
835
836
836
835
835
833
834
836
834
837
836
838
845
847
858
870
884
901
924
947
970
983
982
959
923
869
816
763
720
685
668
668
683
708
736
753
774
784
796
812
822
832
838
838
838
840
840
842
846
851
848
850
846
845
848
847
847
850
854
858
858
859
859
858
857
855
857
856
855
857
862
859
866
864
864
864
865
864
864
865
863
867
868
870
870
871
874
876
875
878
877
880
878
882
884
886
889
893
894
895
897
895
898
900
904
909
915
919
926
929
932
938
939
941
942
947
949
954
956
962
965
966
970
973
972
972
973
971
973
973
978
979
980
976
971
970
964
960
955
950
945
942
941
936
931
925
919
910
904
895
892
888
878
877
875
876
874
873
868
869
860
862
857
856
852
853
854
856
859
854
853
853
849
847
848
845
849
847
849
849
852
854
855
850
848
847
846
845
844
848
851
852
855
855
853
853
847
847
849
845
846
848
845
851
853
854
852
852
849
850
849
845
847
847
849
846
848
848
843
845
842
841
841
837
839
843
843
843
847
847
844
843
840
840
839
834
835
836
834
835
839
842
839
837
836
835
837
830
834
835
835
837
841
842
841
838
834
836
834
831
832
838
835
839
843
840
841
838
840
833
835
833
833
835
838
838
839
838
837
835
835
834
834
834
832
836
836
836
838
839
836
836
835
833
830
829
827
829
834
837
835
833
832
834
829
830
832
831
833
833
836
833
838
839
839
835
836
833
833
830
836
832
836
835
838
840
842
839
837
834
831
834
833
835
839
838
841
839
840
839
837
837
839
836
836
837
839
842
843
841
839
840
838
838
835
836
834
836
838
839
842
842
845
847
843
840
837
839
839
838
841
843
848
853
855
852
858
859
857
855
856
862
862
869
872
876
878
876
875
875
874
870
867
864
864
863
864
864
861
862
854
852
849
841
841
844
843
843
845
846
846
844
841
840
837
837
835
836
835
839
842
842
842
840
837
833
837
831
830
833
833
838
840
842
841
845
845
843
841
848
861
878
896
920
945
973
996
1008
1012
993
958
921
869
820
774
734
710
698
711
726
746
765
781
793
805
815
826
837
847
853
854
849
848
849
845
846
848
853
853
856
860
859
858
858
859
859
860
860
858
862
862
869
868
870
871
871
868
866
867
863
862
867
869
871
872
873
876
876
876
876
876
877
876
879
881
885
886
884
885
889
887
888
888
888
889
893
897
899
899
904
908
908
911
909
911
910
910
913
917
924
929
934
936
940
944
947
944
948
949
954
959
964
971
968
971
971
972
971
974
975
979
977
979
985
986
985
979
975
971
966
961
958
952
948
947
942
940
936
928
921
914
907
902
896
892
889
885
882
880
879
877
873
869
866
862
860
858
858
860
860
859
859
857
857
855
854
851
849
849
850
850
850
856
856
857
854
849
853
850
851
849
851
853
855
859
859
857
858
855
857
857
855
854
856
856
859
860
861
861
858
857
854
853
849
848
850
850
855
856
857
852
854
849
851
848
849
844
846
846
845
847
847
851
850
848
849
846
846
843
840
841
843
844
844
845
843
840
841
840
839
837
840
844
842
845
846
844
843
841
842
840
839
840
837
840
839
841
840
842
841
843
840
839
838
839
838
838
838
841
842
842
841
839
840
839
834
837
837
840
841
842
841
841
839
837
837
832
832
833
835
838
838
840
841
839
837
837
835
835
836
835
836
840
841
839
839
837
835
837
835
836
833
833
835
838
840
841
841
841
837
837
835
834
836
837
835
840
841
843
841
842
840
837
834
835
835
834
836
834
836
838
839
837
838
836
831
831
833
832
834
838
837
839
837
839
839
838
836
833
834
838
838
839
842
844
843
841
840
837
836
836
834
833
833
837
840
841
843
846
851
850
854
851
852
851
851
853
856
859
866
866
867
866
867
867
867
864
864
860
861
862
862
861
855
852
848
841
834
832
833
836
837
837
836
838
835
835
833
831
826
825
825
827
829
829
832
829
827
827
827
828
827
826
828
830
831
835
837
834
834
835
836
839
843
853
872
893
919
944
967
978
975
955
918
870
819
772
731
699
680
678
692
710
733
750
763
780
793
804
816
829
838
840
840
838
834
834
832
836
839
841
843
848
848
850
849
851
849
847
849
848
848
846
851
851
856
855
858
858
860
858
856
855
852
850
853
857
860
860
860
858
862
860
861
861
858
859
866
863
868
871
869
872
872
871
871
873
871
875
878
878
884
886
892
894
896
896
902
901
903
904
911
918
921
929
931
935
934
936
939
944
943
950
954
957
961
964
968
968
968
966
966
963
959
957
956
956
956
958
955
952
948
938
931
923
918
911
910
905
898
890
886
883
882
873
870
864
861
858
853
857
854
853
854
851
849
843
842
840
840
838
841
840
841
844
844
841
842
837
836
833
832
830
830
836
837
836
840
838
840
837
836
835
834
837
837
837
839
837
837
835
839
836
836
831
835
834
833
836
838
837
834
833
831
830
828
830
828
828
830
829
831
835
834
834
832
832
827
828
825
826
826
824
825
827
826
825
826
827
826
825
821
819
819
822
824
824
825
825
822
820
820
819
819
818
820
822
822
823
827
827
824
822
820
817
816
814
816
816
820
823
824
822
822
822
819
818
819
816
814
818
820
821
821
817
816
818
819
816
812
813
815
818
819
820
825
820
819
816
816
813
814
813
817
818
822
823
824
825
824
822
822
818
818
815
818
816
819
821
823
825
823
823
822
821
816
816
817
816
819
821
824
823
819
821
819
816
818
817
819
820
820
