1094
1094
1094
1094
1094
1094
1094
1094
1094
1028
982
958
950
957
967
978
981
984
986
984
984
982
978
974
973
975
976
981
977
978
978
983
988
991
985
982
981
985
990
993
989
985
982
984
984
985
987
987
988
989
989
991
996
1000
1001
998
993
986
986
987
988
992
996
998
1002
1000
998
998
999
1005
1005
1006
1008
1009
1010
1009
1011
1013
1012
1013
1016
1018
1020
1021
1021
1022
1027
1031
1029
1027
1027
1029
1029
1032
1032
1030
1027
1028
1031
1033
1034
1029
1028
1028
1026
1026
1024
1023
1019
1020
1018
1018
1017
1015
1013
1012
1011
1009
1008
1009
1009
1009
1010
1009
1008
1006
1004
1005
1005
1007
1005
1004
1004
1001
1001
998
996
994
992
995
993
992
990
987
989
990
991
990
990
991
988
988
984
984
981
983
982
983
982
980
979
979
976
979
982
983
985
986
984
986
986
987
990
990
989
991
991
987
987
983
983
982
985
985
986
985
985
985
987
989
989
984
979
974
976
976
976
974
972
970
968
963
957
954
956
967
983
997
1005
1015
1026
1039
1052
1059
1051
1033
993
939
882
841
806
773
745
731
723
726
734
746
756
770
793
819
834
838
838
842
847
851
856
864
873
881
892
898
908
916
922
931
937
945
951
961
971
984
993
1006
1016
1021
1022
1025
1030
1035
1040
1041
1042
1046
1046
1050
1054
1055
1054
1060
1061
1065
1068
1071
1071
1075
1078
1082
1082
1084
1084
1085
1089
1087
1086
1087
1087
1093
1096
1098
1099
1099
1097
1099
1101
1106
1105
1104
1104
1105
1104
1106
1103
1104
1101
1102
1103
1101
1100
1095
1095
1095
1094
1089
1084
1080
1074
1074
1074
1074
1071
1066
1059
1057
1056
1053
1052
1053
1050
1044
1040
1032
1027
1022
1019
1019
1018
1016
1015
1010
1003
1008
1009
1007
1006
1002
998
1000
1001
999
994
990
992
992
994
993
992
990
987
988
988
986
988
990
992
996
996
995
990
988
989
992
993
993
991
994
993
994
995
995
991
985
983
986
988
991
990
992
990
991
990
990
990
990
987
986
988
988
988
989
984
982
984
984
982
981
982
984
989
992
995
995
997
996
997
998
1000
1001
1002
1003
1004
1005
1002
996
989
988
988
988
991
989
989
989
991
991
991
989
991
992
993
994
993
992
992
993
995
994
994
987
984
984
985
986
986
985
984
985
987
989
989
993
990
990
991
994
992
991
989
990
990
987
981
979
986
999
1016
1034
1049
1067
1088
1107
1124
1145
1169
1193
1212
1236
1246
1244
1225
1196
1147
1072
1002
957
932
921
916
922
936
947
952
954
957
960
965
964
964
959
957
957
957
959
962
964
968
972
976
975
972
970
968
968
969
970
969
968
973
974
976
977
977
977
976
977
977
978
976
979
978
979
982
985
981
980
976
978
978
981
982
982
980
983
988
987
986
986
985
992
996
998
999
998
996
998
1000
999
999
995
999
1000
999
1001
1000
996
994
995
997
1002
1003
1004
1007
1005
1008
1011
1010
1010
1009
1010
1012
1013
1014
1009
1011
1011
1010
1008
1008
1008
1008
1008
1008
1009
1006
1006
1007
1006
1009
1009
1010
1009
1006
1009
1011
1010
1010
1007
1006
1006
1008
1004
1003
1001
1000
1001
1004
1003
1000
996
996
1001
1010
1009
1006
1003
1001
1002
1002
998
997
994
998
999
999
996
993
993
993
993
995
998
998
998
1000
1002
1006
1010
1012
1008
1009
1014
1021
1025
1028
1028
1032
1036
1040
1045
1046
1043
1048
1064
1077
1077
1068
1064
1062
1054
1031
979
899
806
729
675
645
633
625
622
624
631
643
655
674
703
729
754
769
777
788
803
817
836
858
870
881
891
903
920
931
940
944
946
949
956
963
970
986
999
1012
1023
1034
1046
1054
1061
1066
1070
1076
1081
1089
1090
1089
1094
1102
1110
1118
1117
1121
1125
1128
1132
1136
1141
1144
1148
1153
1155
1159
1160
1163
1167
1175
1181
1185
1183
1185
1188
1192
1197
1195
1194
1191
1190
1191
1189
1184
1182
1178
1180
1178
1175
1167
1160
1157
1152
1147
1145
1141
1136
1130
1123
1116
1111
1104
1096
1089
1082
1079
1073
1065
1061
1061
1059
1057
1055
1052
1050
1046
1043
1039
1035
1031
1027
1023
1026
1027
1024
1020
1016
1013
1017
1023
1025
1023
1019
1020
1022
1021
1020
1018
1015
1012
1011
1012
1014
1012
1007
1006
1002
1003
1005
1007
1009
1008
1005
1005
1006
1005
1001
1001
1000
1002
1005
1003
1002
999
1001
1006
1005
1002
999
997
998
999
999
997
995
993
995
998
997
996
993
993
997
999
998
997
995
991
986
989
994
997
999
995
1002
1006
1010
1009
1006
997
994
993
993
1000
1004
1008
1011
1009
1005
1004
1005
1007
1008
1008
1008
1005
1000
999
999
999
998
997
998
998
1000
1001
1003
1000
995
997
1002
1002
1002
999
1003
1004
1008
1014
1018
1010
1000
987
981
980
987
992
992
995
994
998
996
994
990
986
987
990
989
991
992
988
989
987
987
986
983
982
981
981
988
999
1009
1024
1041
1062
1082
1096
1112
1131
1160
1184
1205
1223
1229
1225
1208
1182
1138
1069
1000
957
938
923
920
925
936
944
951
950
947
952
950
948
946
941
943
943
943
941
942
945
947
947
947
951
953
955
957
953
946
944
946
952
958
956
948
945
943
946
945
946
944
944
945
946
947
946
947
947
948
950
956
957
957
958
959
954
951
953
955
956
956
952
954
955
954
953
955
956
957
955
951
954
954
957
958
962
966
967
971
969
968
964
963
963
965
967
963
960
960
963
969
971
969
967
968
970
972
974
973
973
971
971
974
972
975
972
967
966
966
968
967
967
968
962
962
964
967
969
965
963
964
964
960
964
963
961
963
965
965
963
957
957
956
957
957
955
952
951
953
957
958
960
962
965
969
974
978
982
984
989
994
996
995
993
993
998
998
1001
1003
1012
1016
1015
1007
992
972
938
886
812
739
678
638
617
611
612
608
613
625
644
663
683
697
716
736
759
777
795
811
825
836
841
850
858
872
886
893
899
902
907
911
918
926
930
940
954
969
983
993
1000
1006
1018
1028
1036
1040
1043
1050
1054
1058
1060
1061
1066
1069
1073
1078
1084
1087
1086
1087
1094
1098
1097
1098
1101
1104
1109
1118
1122
1125
1125
1130
1130
1131
1132
1133
1133
1138
1140
1138
1139
1136
1134
1133
1135
1134
1136
1134
1130
1124
1120
1117
1117
1112
1105
1103
1099
1096
1095
1093
1082
1074
1068
1063
1059
1054
1048
1043
1037
1035
1031
1028
1023
1019
1016
1011
1010
1008
1004
1001
997
998
996
993
992
990
990
989
988
983
982
979
981
984
987
984
980
978
978
982
985
983
981
979
982
984
985
984
980
978
977
978
978
979
976
973
974
978
979
976
976
972
974
975
978
981
980
979
979
978
981
981
975
974
975
976
976
978
978
975
976
975
976
975
975
974
974
979
976
976
977
976
976
976
976
973
973
972
979
979
980
981
979
977
974
975
975
974
973
976
981
982
981
979
978
978
979
979
978
979
980
980
982
986
989
991
990
989
990
993
995
996
997
997
997
996
995
993
992
988
987
987
988
985
983
981
980
980
979
980
981
982
982
983
985
984
984
984
987
987
986
987
986
984
982
981
979
974
975
978
977
977
980
981
982
983
985
984
981
977
977
979
990
1007
1027
1047
1065
1083
1105
1131
1161
1189
1214
1234
1247
1246
1223
1175
1089
997
940
916
915
920
932
942
950
951
956
954
954
949
948
948
953
958
956
955
959
964
969
968
966
962
962
964
965
964
961
956
957
963
967
968
965
964
965
967
969
967
968
967
970
971
970
970
970
972
976
973
973
973
973
971
972
974
973
973
972
970
973
972
969
972
974
977
979
979
978
980
981
983
985
984
983
980
982
980
982
983
987
985
985
985
989
994
996
995
992
992
995
997
999
999
996
998
1002
1003
1002
998
997
996
996
996
999
999
1002
1003
999
1000
1002
1002
998
995
995
996
996
997
992
991
991
993
995
993
990
989
992
993
994
991
987
986
988
992
992
992
990
986
989
988
988
991
993
995
1002
1010
1014
1019
1023
1024
1030
1036
1039
1041
1039
1042
1051
1055
1053
1042
1019
976
908
831
756
685
628
599
597
599
606
609
621
634
654
677
695
714
739
766
787
803
817
831
844
858
871
883
892
897
909
920
932
943
954
966
981
992
1005
1019
1028
1039
1048
1051
1060
1064
1068
1074
1078
1080
1083
1087
1093
1096
1099
1098
1102
1105
1111
1115
1118
1122
1128
1133
1135
1141
1144
1148
1151
1158
1160
1162
1161
1163
1169
1172
1175
1177
1177
1177
1180
1184
1187
1182
1182
1177
1177
1180
1180
1180
1173
1167
1166
1166
1164
1158
1150
1140
1131
1123
1117
1113
1106
1103
1099
1097
1093
1088
1080
1073
1067
1063
1060
1054
1048
1043
1043
1043
1040
1037
1032
1028
1024
1024
1024
1020
1020
1018
1017
1018
1018
1016
1010
1008
1011
1010
1013
1010
1007
1006
1006
1012
1013
1011
1005
1003
1003
1006
1008
1009
1007
1004
1009
1008
1008
1007
1002
1000
1002
1005
1008
1006
1006
1003
1001
1004
1005
1002
999
995
992
993
994
997
999
998
1002
999
1000
998
995
994
995
996
995
994
992
990
992
993
993
993
994
992
992
992
995
994
993
988
989
991
993
995
991
988
990
992
991
991
992
993
995
997
1001
1003
1005
1006
1007
1006
1005
1000
994
990
991
990
990
990
988
988
990
989
988
987
986
984
989
989
991
996
996
993
993
993
992
989
986
983
983
984
986
984
982
980
982
982
983
983
984
984
987
987
987
986
983
982
981
980
974
972
977
985
997
1018
1043
1063
1081
1096
1116
1140
1163
1186
1203
1213
1212
1193
1169
1133
1081
1019
970
943
930
926
931
939
947
954
956
961
961
958
954
952
949
948
948
948
952
955
960
962
960
957
957
958
958
959
955
957
957
956
960
959
959
959
962
963
962
961
961
963
964
965
967
965
964
962
964
969
969
968
968
966
965
968
966
967
965
964
967
972
975
979
976
971
970
972
971
977
975
974
976
976
979
980
977
977
979
980
977
974
976
978
987
989
992
990
986
983
984
981
982
986
984
983
988
989
989
988
986
983
986
987
992
989
984
980
980
984
986
990
989
987
988
988
990
990
990
979
983
981
979
979
980
981
985
985
985
981
977
980
982
988
986
988
985
981
982
982
982
979
976
972
974
976
978
980
974
970
971
969
972
973
974
974
977
980
982
982
983
982
986
989
993
1008
1027
1041
1048
1047
1044
1042
1028
1002
945
866
789
734
695
670
655
643
641
646
649
652
669
702
735
763
782
794
814
832
842
847
852
859
866
879
890
906
909
916
925
937
952
968
980
992
1004
1015
1024
1031
1035
1036
1040
1043
1045
1045
1047
1057
1063
1067
1070
1070
1069
1069
1074
1080
1086
1090
1094
1093
1098
1104
1107
1111
1109
1109
1111
1114
1117
1123
1128
1129
1129
1133
1136
1137
1135
1129
1130
1130
1128
1126
1120
1115
1116
1115
1112
1111
1103
1095
1093
1092
1091
1085
1076
1065
1055
1050
1043
1043
1036
1032
1026
1026
1021
1016
1012
1009
1011
1012
1012
1009
1004
1005
1004
1002
1000
995
993
989
990
994
993
992
987
981
980
987
988
991
988
988
989
992
997
995
995
994
998
1000
997
996
995
995
995
996
992
994
993
992
993
988
988
991
990
988
984
985
987
987
985
979
981
985
992
994
989
986
983
985
988
989
990
986
992
995
997
996
995
990
992
997
999
991
984
979
981
986
990
989
987
987
993
994
997
998
999
997
1000
1004
1006
1008
1008
1005
1006
1007
1002
1000
998
993
997
997
999
996
993
989
994
991
991
992
987
981
982
989
995
994
990
988
994
994
997
993
990
985
987
987
990
990
988
987
987
985
982
982
984
989
991
991
987
982
976
975
975
976
981
987
999
1014
1031
1053
1071
1089
1112
1135
1163
1190
1217
1243
1255
1253
1237
1208
1156
1067
987
943
928
926
932
940
950
954
956
956
956
953
947
946
949
951
950
952
953
950
957
961
963
965
962
960
963
966
969
969
971
969
967
968
969
971
970
971
974
973
971
969
964
962
964
970
973
972
971
969
975
977
972
966
963
961
963
967
971
975
976
977
977
980
984
982
979
973
977
980
983
984
984
982
977
974
974
977
981
982
984
985
988
987
988
987
993
996
1000
995
987
977
979
985
993
995
999
999
1000
1000
999
997
997
994
997
999
1000
1003
1004
1003
1000
996
997
994
994
991
992
994
991
987
987
985
986
986
984
982
978
978
983
988
987
989
989
986
986
978
969
965
966
969
974
981
988
987
990
990
998
1004
1011
1015
1013
1015
1018
1019
1024
1028
1026
1018
1007
985
935
857
772
697
635
598
589
589
593
598
610
627
648
670
692
715
745
782
807
823
834
844
855
869
882
890
897
906
920
933
944
955
974
991
1006
1018
1032
1043
1052
1056
1059
1067
1072
1079
1079
1081
1087
1088
1092
1095
1100
1101
1104
1109
1117
1123
1125
1127
1135
1144
1149
1150
1150
1153
1155
1162
1166
1168
1168
1167
1168
1171
1171
1175
1172
1170
1172
1176
1178
1174
1170
1166
1164
1162
1160
1156
1151
1144
1139
1133
1123
1115
1112
1108
1103
1100
1097
1095
1087
1080
1074
1072
1070
1067
1063
1060
1056
1054
1049
1047
1042
1035
1032
1026
1021
1017
1016
1015
1015
1018
1016
1018
1016
1014
1014
1013
1011
1011
1011
1010
1008
1003
1003
1003
1001
1003
1007
1007
1005
1006
1002
1000
1000
1000
1003
1002
1001
997
996
999
1000
1002
998
996
993
993
993
992
989
985
988
990
993
996
998
996
992
989
986
982
984
988
990
988
990
987
988
985
987
988
989
987
984
979
979
983
987
986
985
987
990
990
986
982
980
979
984
987
988
982
981
982
985
983
981
983
985
984
982
981
981
983
985
983
988
991
992
998
998
997
999
995
993
987
984
982
983
985
986
986
987
987
990
988
988
987
988
986
980
973
972
970
971
976
978
983
982
976
972
971
970
973
972
971
969
971
973
977
975
972
972
970
973
978
978
975
976
972
970
968
967
966
965
966
973
984
1000
1014
1027
1042
1060
1077
1098
1120
1143
1165
1182
1194
1195
1183
1161
1127
1080
1027
981
946
925
913
916
927
934
936
938
935
938
941
944
944
943
940
943
945
947
949
945
942
943
951
957
960
957
956
956
957
956
957
955
954
955
957
958
960
958
957
958
958
960
962
963
963
962
962
965
964
961
960
958
961
960
960
959
962
965
967
968
964
964
967
970
975
976
972
971
968
970
968
966
966
965
970
974
977
979
975
968
967
968
972
975
976
974
973
976
979
979
978
976
977
978
983
985
985
986
985
984
983
986
982
981
980
979
983
986
985
985
983
981
988
988
986
986
986
987
991
991
986
980
978
984
983
987
984
981
976
980
982
985
980
970
970
971
975
975
976
973
971
971
972
973
978
974
972
971
972
973
971
971
969
969
970
967
965
965
965
966
974
981
982
982
979
983
987
992
998
998
997
998
1002
1010
1012
1013
1017
1030
1047
1056
1056
1048
1046
1044
1039
1023
992
938
860
784
719
675
651
642
633
631
636
642
644
646
650
667
690
719
733
740
750
764
786
809
826
835
846
859
868
877
884
894
903
914
919
922
922
924
926
934
941
946
957
966
978
992
1005
1018
1026
1030
1035
1042
1048
1053
1056
1059
1057
1059
1063
1071
1074
1075
1072
1078
1080
1084
1090
1095
1098
1102
1103
1106
1109
1110
1118
1121
1128
1132
1131
1131
1133
1138
1142
1147
1146
1148
1146
1147
1150
1151
1151
1155
1156
1156
1156
1155
1153
1146
1142
1145
1147
1149
1148
1142
1136
1137
1136
1136
1130
1123
1119
1117
1119
1118
1112
1108
1102
1101
1096
1094
1087
1080
1073
1069
1067
1062
1057
1054
1048
1046
1041
1040
1034
1030
1026
1025
1025
1024
1025
1021
1014
1009
1004
1003
1007
1012
1012
1015
1014
1014
1014
1010
1009
1008
1005
1003
1007
1006
1003
1004
1004
1007
1006
1002
1000
1002
1007
1009
1007
1004
998
998
996
995
995
995
994
994
994
997
998
997
996
998
1000
1000
1000
1000
997
996
994
998
1000
1000
999
996
992
988
983
978
983
984
986
985
986
982
976
976
977
982
986
987
984
984
984
989
990
987
982
980
981
980
978
976
977
979
984
989
989
989
987
987
989
989
985
979
975
978
982
984
986
984
983
982
981
981
980
982
989
995
999
997
996
995
993
994
994
995
996
991
988
991
992
993
989
983
979
982
987
989
989
984
979
978
981
982
982
983
984
990
994
994
990
986
980
983
982
983
984
982
980
977
974
975
972
967
967
970
973
978
985
988
987
988
984
985
986
982
978
983
993
1009
1026
1043
1060
1078
1095
1115
1136
1159
1181
1205
1225
1230
1223
1199
1149
1068
990
946
935
929
929
940
950
955
957
956
951
948
946
944
945
948
947
947
945
949
958
964
965
959
955
954
956
960
967
970
971
970
972
965
961
960
961
965
967
969
967
969
970
971
971
970
969
968
972
972
973
972
969
972
973
974
972
971
971
968
969
971
974
976
980
986
988
982
968
953
953
964
971
974
966
958
959
968
971
974
974
975
974
974
974
976
977
977
978
985
987
991
992
989
987
991
997
997
1000
996
994
996
997
994
990
991
988
989
992
994
991
993
993
994
995
995
995
995
994
991
989
992
991
986
987
986
986
987
988
983
983
982
982
983
980
981
980
984
984
985
983
978
977
978
982
980
979
977
976
982
986
998
1003
1008
1010
1013
1019
1023
1026
1024
1020
1022
1030
1036
1035
1021
999
971
918
843
762
687
626
587
572
572
574
575
583
596
608
623
643
661
680
696
724
758
784
809
821
835
843
856
870
879
886
894
902
916
928
935
945
956
973
992
1005
1015
1023
1034
1044
1053
1057
1058
1063
1068
1071
1076
1081
1086
1087
1091
1093
1096
1098
1101
1103
1105
1112
1118
1122
1124
1128
1129
1132
1140
1145
1146
1147
1152
1156
1159
1161
1161
1158
1161
1164
1165
1165
1164
1164
1165
1163
1164
1164
1161
1155
1155
1151
1150
1148
1140
1133
1129
1122
1118
1110
1101
1093
1085
1082
1078
1074
1065
1057
1052
1049
1050
1047
1044
1036
1032
1032
1031
1029
1023
1012
1008
1007
1009
1006
1002
998
1000
994
995
995
992
992
994
994
994
992
986
987
987
988
989
988
986
980
980
979
981
985
985
982
981
978
980
980
981
976
976
976
975
975
975
973
974
974
975
976
973
970
969
969
969
967
968
968
969
968
964
963
967
968
968
966
968
965
966
965
968
966
967
966
966
963
966
965
969
968
964
962
963
964
964
965
962
961
964
969
970
974
973
971
974
978
980
979
975
973
974
974
977
972
971
968
966
968
967
963
960
960
959
960
962
967
966
961
956
955
962
962
959
956
958
958
962
963
960
958
957
957
957
958
950
946
945
949
959
974
988
1006
1024
1051
1070
1091
1109
1127
1145
1149
1137
1116
1090
1046
989
942
915
898
894
898
910
920
928
927
928
932
936
936
934
931
928
926
930
935
940
943
941
941
941
942
944
949
944
944
943
948
949
954
952
949
950
950
951
951
947
944
944
948
948
948
950
951
952
950
953
955
952
952
953
955
958
958
958
957
956
958
957
954
954
952
955
961
966
965
963
962
960
963
964
965
965
965
965
965
966
965
965
965
970
970
972
972
968
968
971
975
978
978
977
976
976
975
976
977
976
974
974
977
976
975
973
971
968
970
970
975
972
969
966
967
967
966
964
965
969
972
972
972
969
966
967
968
966
966
962
957
959
960
960
958
957
954
956
957
958
959
959
958
957
958
956
954
955
953
955
957
957
958
955
954
954
956
959
959
958
958
962
963
962
964
965
966
968
971
973
974
975
976
977
977
976
972
969
965
966
965
966
968
967
966
963
962
963
964
962
961
963
965
969
967
965
962
961
956
955
955
957
956
959
961
963
960
958
955
957
964
965
967
966
963
965
962
958
954
954
961
974
994
1016
1040
1063
1081
1101
1123
1149
1169
1182
1172
1150
1129
1091
1029
966
922
905
903
910
923
932
931
936
941
944
945
942
937
935
935
936
934
935
935
942
949
951
947
944
938
941
944
946
945
944
943
946
948
948
949
948
945
947
950
949
949
946
947
951
954
957
956
954
957
961
964
970
971
966
963
966
968
972
971
968
971
974
978
979
976
973
975
978
982
982
980
980
979
982
989
996
997
996
997
998
997
996
997
997
993
991
991
991
989
988
985
984
984
983
984
979
980
979
977
976
976
974
973
976
976
975
973
970
967
965
965
966
966
966
963
964
964
967
964
965
963
961
963
962
960
958
956
957
958
957
955
954
952
951
951
953
950
951
946
947
949
951
951
953
953
953
953
954
955
956
955
957
958
956
954
951
949
947
946
948
948
949
949
949
950
950
951
949
947
951
953
956
956
959
962
965
964
964
958
954
947
945
946
946
946
940
940
944
948
949
949
947
948
949
951
954
954
954
951
952
952
949
947
943
941
940
948
959
973
983
999
1021
1042
1063
1082
1102
1124
1147
1157
1153
1132
1109
1088
1059
1013
965
931
907
896
900
908
920
926
927
929
935
939
941
937
933
932
930
926
930
933
935
938
938
936
939
939
939
939
941
941
942
944
942
942
943
946
947
951
951
949
948
946
950
951
950
947
948
949
951
951
951
952
958
957
961
963
964
964
967
972
974
975
975
975
978
982
984
985
983
980
984
988
997
997
999
996
991
990
987
993
997
992
986
981
977
978
978
975
976
975
975
975
976
972
973
974
973
971
967
965
968
969
973
974
971
967
966
967
968
966
964
963
963
965
967
968
967
962
959
961
965
965
962
958
956
956
955
953
953
952
953
957
959
960
961
961
962
964
966
964
962
961
965
966
971
968
968
966
965
963
964
960
961
960
963
966
968
968
968
965
966
966
968
968
967
969
974
977
978
977
973
969
966
965
966
969
969
965
964
964
965
969
971
969
972
973
970
974
973
971
971
972
971
972
969
966
967
977
993
1011
1027
1043
1063
1083
1105
1127
1150
1173
1189
1198
1193
1173
1147
1106
1040
978
939
917
907
901
912
926
939
943
943
943
948
952
956
953
946
943
943
944
946
947
949
951
956
958
956
955
956
955
957
960
962
962
963
958
961
964
968
967
965
966
966
969
970
971
969
968
969
969
971
970
971
971
974
977
983
986
986
984
982
986
994
995
995
992
994
997
1002
1000
999
1000
1000
1001
1004
1004
1005
1004
1004
1006
1011
1012
1014
1013
1016
1022
1026
1024
1022
1023
1021
1022
1020
1020
1019
1015
1011
1011
1009
1005
1004
1007
1012
1017
1015
1014
1013
1012
1012
1014
1014
1014
1012
1008
1008
1009
1012
1009
1007
1005
1006
1006
1005
1006
1004
1001
1002
1005
1005
1006
1000
995
995
996
998
999
998
995
994
994
993
993
992
992
991
993
994
993
992
987
988
988
990
997
998
1002
1004
1005
1007
1003
1001
999
998
995
996
992
989
986
985
989
991
994
991
990
990
995
998
997
995
992
994
996
1001
1000
997
995
994
995
996
996
994
990
991
993
996
996
993
993
993
994
999
998
997
995
993
994
996
995
990
986
984
989
998
1015
1030
1041
1063
1086
1106
1125
1143
1167
1192
1217
1239
1249
1241
1220
1191
1145
1072
1008
965
947
944
946
953
960
968
973
981
982
983
982
977
973
972
969
969
971
975
977
978
986
987
987
984
982
985
982
985
985
985
982
982
982
982
986
984
983
984
984
985
985
986
983
988
989
989
989
991
990
991
990
993
994
991
990
993
996
996
999
996
994
997
1001
1006
1007
1007
1005
1005
1010
1015
1017
1016
1016
1019
1023
1028
1029
1030
1026
1025
1028
1027
1027
1030
1031
1033
1032
1035
1034
1033
1029
1030
1031
1033
1033
1029
1024
1025
1025
1025
1025
1021
1019
1019
1019
1020
1018
1013
1012
1012
1012
1015
1015
1017
1015
1013
1014
1013
1012
1012
1010
1010
1008
1007
1008
1004
1002
1001
997
994
990
995
994
998
1000
1003
1004
1000
998
997
998
999
997
999
999
1000
1001
1000
1000
998
995
997
1000
999
1001
1002
1001
999
999
996
996
993
988
989
991
993
995
999
996
997
998
998
993
993
988
988
987
988
984
982
982
981
985
982
983
982
981
984
987
985
987
984
985
987
991
993
993
993
991
994
995
997
995
995
994
994
998
997
991
984
978
980
989
1005
1020
1032
1043
1061
1079
1098
1115
1133
1155
1178
1199
1216
1215
1204
1186
1169
1148
1117
1068
1020
985
960
948
944
943
946
953
961
969
973
974
974
974
975
972
971
964
963
960
963
966
970
972
970
966
969
972
973
974
975
969
973
973
972
972
975
973
973
976
978
981
981
979
980
980
981
985
989
989
987
981
981
979
978
979
986
989
990
990
987
988
993
995
996
1000
999
1001
1003
1005
1010
1008
1009
1009
1014
1018
1019
1018
1018
1014
1019
1019
1021
1027
1027
1027
1025
1029
1036
1039
1037
1030
1030
1035
1034
1035
1033
1027
1023
1022
1021
1021
1018
1014
1014
1017
1018
1016
1013
1009
1005
1006
1010
1010
1006
1003
1003
1005
1005
1003
1001
999
999
1000
1001
1001
998
990
990
992
996
997
993
991
990
991
993
997
994
986
984
982
988
991
987
983
980
977
978
981
982
984
986
987
987
984
984
981
982
981
983
983
981
978
981
984
987
985
984
986
988
989
995
996
997
996
998
1000
1001
1003
1002
1002
1006
1007
1005
1000
996
994
993
996
993
989
986
987
993
995
994
993
997
999
1001
1001
1000
1003
1005
1004
1002
1000
996
994
989
983
986
991
995
994
988
991
995
1000
1004
1001
997
995
997
1001
1003
1004
1003
997
993
990
991
993
1000
1007
1019
1035
1056
1077
1095
1105
1119
1143
1168
1193
1213
1225
1220
1209
1188
1161
1116
1052
995
960
941
938
939
946
954
965
970
973
975
979
982
981
980
978
976
971
968
969
970
980
983
981
981
983
985
984
984
983
983
983
983
982
980
981
986
988
990
990
991
991
990
992
988
989
990
993
995
997
994
991
989
987
992
994
997
996
997
994
995
997
1002
1003
1001
1006
1008
1016
1021
1019
1016
1012
1014
1017
1021
1024
1024
1021
1024
1028
1031
1031
1027
1024
1021
1025
1028
1028
1025
1027
1031
1034
1037
1042
1043
1041
1041
1042
1041
1039
1036
1037
1038
1037
1032
1027
1026
1025
1029
1035
1037
1031
1018
1010
1011
1014
1021
1022
1023
1018
1019
1022
1023
1024
1020
1015
1015
1012
1015
1014
1011
1009
1009
1014
1019
1020
1016
1008
1011
1013
1014
1016
1012
1008
1005
1007
1009
1010
1009
1006
1006
1006
1008
1008
1009
1005
1003
1000
999
999
998
997
999
998
1001
1006
1011
1008
1009
1015
1016
1013
1011
1011
1015
1015
1012
1011
1009
1007
1005
1006
1006
1005
1004
1005
1004
1005
1005
1005
1006
1006
1009
1012
1013
1014
1013
1012
1011
1010
1012
1009
1007
1004
1005
1005
1002
1002
1000
997
999
1002
1008
1012
1015
1012
1011
1010
1016
1020
1018
1013
1010
1017
1017
1015
1009
1007
1013
1027
1043
1059
1078
1098
1119
1144
1178
1209
1237
1262
1282
1284
1272
1244
1188
1099
1020
978
963
960
958
959
972
988
999
998
999
997
993
991
989
987
984
979
980
987
996
996
1001
999
994
990
985
986
989
990
993
996
999
999
995
993
994
997
1000
1000
1002
999
1002
1002
1011
1013
1012
1007
1008
1008
1005
1004
1003
1003
1009
1015
1017
1020
1022
1024
1026
1025
1025
1029
1032
1037
1041
1042
1043
1043
1043
1044
1046
1041
1038
1040
1046
1053
1057
1062
1062
1059
1054
1050
1047
1047
1048
1045
1048
1050
1050
1050
1044
1041
1041
1040
1036
1035
1034
1034
1034
1032
1033
1036
1035
1031
1022
1021
1024
1030
1032
1031
1026
1018
1020
1023
1027
1026
1024
1016
1016
1016
1018
1020
1022
1024
1023
1025
1028
1026
1023
1020
1018
1019
1020
1026
1025
1024
1023
1022
1021
1018
1023
1028
1026
1026
1029
1028
1035
1038
1039
1041
1042
1042
1038
1031
1024
1022
1026
1030
1031
1028
1025
1020
1019
1017
1019
1018
1013
1017
1022
1026
1027
1023
1024
1025
1025
1026
1025
1021
1020
1017
1018
1022
1020
1017
1016
1012
1020
1022
1021
1010
1007
1007
1013
1017
1014
1010
1012
1016
1019
1022
1018
1010
1006
1010
1024
1039
1057
1071
1089
1107
1131
1154
1178
1208
1231
1256
1273
1277
1268
1240
1198
1128
1058
1013
991
979
972
973
984
995
1008
1014
1010
1008
1004
1000
995
994
994
992
991
992
996
999
1003
1005
1007
1007
1006
1007
1008
1006
1007
1004
1000
995
999
1006
1007
1000
992
990
994
999
1005
1011
1014
1012
1007
1007
1008
1009
1011
1012
1009
1007
1001
1001
1007
1014
1016
1014
1010
1010
1015
1017
1015
1017
1021
1022
1025
1022
1023
1025
1027
1028
1031
1038
1046
1048
1048
1043
1034
1027
1023
1029
1039
1041
1039
1038
1039
1041
1039
1031
1027
1024
1022
1025
1026
1026
1023
1020
1017
1012
1011
1013
1013
1012
1011
1008
1007
1009
1011
1012
1005
1000
1001
1006
1009
1005
1007
1007
1005
1004
1000
994
995
998
1007
1010
1006
995
989
990
997
1003
1007
1006
1007
1009
1009
1010
1011
1009
1015
1015
1019
1020
1018
1016
1009
1010
1008
1008
1009
1008
1007
1011
1015
1017
1017
1013
1007
1004
1008
1010
1008
1007
1003
1000
999
998
1000
1001
1001
1001
1004
1005
1004
1001
999
1003
1004
1006
1003
1000
1000
1000
1003
1003
1004
1002
1002
1004
1001
998
995
996
1003
1008
1014
1021
1028
1040
1065
1093
1117
1139
1159
1186
1210
1230
1239
1231
1211
1187
1153
1104
1045
1002
975
958
954
957
966
973
974
975
980
986
983
976
963
960
962
968
969
967
967
965
972
975
976
976
974
974
975
980
983
983
983
980
979
982
986
984
981
984
988
988
987
985
985
986
988
990
987
987
985
989
993
997
1001
1005
1007
1000
993
991
989
995
1002
1003
1005
1004
1010
1014
1011
1012
1015
1018
1020
1020
1016
1013
1016
1024
1027
1026
1029
1030
1033
1036
1036
1034
1031
1027
1026
1025
1025
1027
1027
1027
1023
1021
1020
1019
1015
1011
1011
1011
1014
1015
1011
1011
1010
1012
1016
1017
1018
1015
1014
1006
1003
1001
1002
1001
998
993
989
982
981
984
989
994
996
996
994
990
991
992
991
991
987
984
983
984
985
984
984
982
982
980
979
975
973
973
974
978
980
978
977
975
974
976
976
979
977
980
978
979
981
984
982
977
969
967
969
974
974
971
972
976
976
978
978
977
980
984
988
990
993
991
989
988
990
991
994
993
994
996
995
995
994
992
994
991
990
987
988
986
985
988
992
990
989
983
985
987
990
990
988
987
989
993
993
994
990
986
984
986
986
986
983
982
984
990
994
995
994
986
981
978
977
982
983
977
975
979
984
985
981
978
976
974
976
977
986
998
1014
1032
1050
1065
1084
1102
1126
1151
1175
1193
1207
1208
1192
1165
1128
1074
1011
964
938
925
920
925
934
942
947
952
958
964
968
964
958
957
956
954
956
955
955
957
959
961
962
959
959
963
966
964
962
962
966
965
965
963
962
963
962
970
975
976
971
965
963
964
967
968
967
969
973
982
986
985
980
974
974
980
986
989
989
988
988
986
989
988
988
989
991
993
996
994
994
991
992
995
999
998
999
998
1002
1009
1011
1005
1005
1006
1008
1007
1005
1001
998
997
1000
1003
1001
999
998
1000
1002
1004
1003
996
986
981
981
984
987
987
985
982
981
979
983
983
985
983
980
978
978
981
983
979
983
984
986
985
980
972
970
973
979
977
977
972
970
970
974
978
977
975
975
977
978
977
975
974
974
978
981
982
982
979
982
986
989
987
988
988
989
995
1000
1004
1003
999
1004
1006
1014
1014
1017
1016
1021
1026
1038
1048
1055
1056
1065
1077
1082
1080
1076
1067
1038
984
904
810
734
680
651
633
624
619
621
628
646
674
701
715
728
743
759
774
790
813
830
845
857
866
879
887
896
901
907
916
926
931
934
939
950
965
981
994
1004
1010
1019
1027
1037
1045
1049
1052
1054
1061
1066
1071
1072
1075
1078
1082
1089
1092
1094
1095
1099
1107
1115
1120
1122
1124
1126
1131
1133
1135
1139
1144
1148
1153
1156
1161
1165
1166
1169
1168
1170
1171
1169
1170
1174
1174
1178
1170
1170
1165
1163
1158
1158
1156
1156
1149
1146
1145
1139
1135
1129
1122
1116
1113
1110
1103
1096
1091
1082
1077
1073
1069
1065
1057
1053
1049
1044
1038
1036
1035
1035
1031
1029
1029
1025
1020
1018
1014
1017
1016
1014
1011
1011
1009
1009
1002
1003
1001
1002
1007
1009
1006
1003
1005
1007
1011
1013
1008
1004
1004
1005
1006
1008
1008
1005
1003
1003
1003
1003
1003
1001
997
998
998
1000
999
996
995
997
997
998
998
995
992
994
997
1001
1001
998
993
992
990
993
993
989
983
983
984
988
993
993
990
990
991
993
993
993
994
996
996
999
997
998
998
999
1001
1003
1002
999
998
1002
1003
1000
994
989
989
992
990
989
988
987
986
985
987
989
988
987
985
988
989
987
987
985
989
990
991
992
985
979
979
977
979
982
983
985
982
983
983
985
982
983
980
980
980
983
983
978
974
970
973
979
992
1006
1021
1042
1064
1089
1110
1134
1159
1189
1219
1238
1241
1227
1197
1145
1065
989
948
936
935
946
960
969
972
968
964
963
963
962
955
955
954
950
952
957
963
963
963
963
962
964
962
961
960
962
964
964
963
962
961
962
964
966
965
964
964
964
968
972
971
969
966
968
972
976
976
974
976
976
975
978
975
974
971
973
978
983
983
986
984
985
987
986
986
989
989
990
992
993
993
995
995
994
997
999
997
996
998
1000
1001
1005
1004
1002
1000
1000
1001
1003
1002
999
997
994
993
993
992
994
995
996
998
998
998
999
999
1000
999
1000
1002
1005
1005
1007
1005
1011
1011
1007
1003
998
995
996
993
991
988
985
985
992
993
992
987
988
985
987
986
986
987
987
993
997
1000
1002
1002
1005
1008
1014
1015
1012
1011
1004
999
1000
1009
1008
995
980
957
916
851
777
707
646
607
593
587
584
584
596
617
640
667
687
704
721
746
772
797
816
829
839
846
859
869
875
884
891
901
914
923
932
947
960
974
985
1003
1014
1024
1035
1045
1049
1052
1059
1061
1062
1064
1071
1075
1080
1083
1083
1085
1093
1098
1100
1102
1104
1105
1110
1111
1113
1114
1115
1122
1129
1134
1138
1139
1140
1142
1148
1151
1152
1152
1149
1152
1153
1153
1152
1150
1147
1147
1146
1145
1141
1137
1132
1128
1130
1128
1127
1120
1112
1110
1105
1099
1093
1087
1081
1076
1074
1067
1063
1055
1047
1041
1038
1039
1037
1033
1027
1024
1018
1016
1013
1008
1006
1005
1005
1003
1000
997
991
990
989
989
987
982
979
981
986
988
988
985
983
980
985
983
981
982
983
986
985
986
983
977
974
974
976
976
977
975
976
978
978
977
978
976
976
975
974
972
971
969
969
972
972
967
967
961
959
960
962
963
965
965
969
971
975
972
968
966
966
966
971
969
965
960
962
964
966
964
963
965
964
965
968
966
966
965
964
967
970
971
970
965
966
967
970
969
966
955
960
966
968
967
963
961
962
963
966
966
967
964
962
964
969
970
971
971
967
964
968
970
971
968
966
963
967
967
966
960
956
963
967
969
969
966
962
966
965
965
966
966
965
968
970
971
971
969
965
967
966
966
966
962
963
964
964
966
970
971
968
969
970
969
968
966
967
969
972
974
973
975
978
976
976
973
977
975
974
974
976
976
976
975
973
974
974
973
972
968
967
970
971
965
962
959
960
966
967
966
960
959
958
961
963
962
960
963
971
974
975
972
971
967
964
964
964
963
966
963
962
965
964
963
964
966
963
961
967
966
964
968
966
967
967
964
962
962
961
966
978
989
998
1014
1029
1049
1072
1089
1106
1123
1142
1166
1189
1199
1192
1175
1149
1115
1069
1010
957
921
902
893
893
901
909
917
922
927
932
936
941
942
937
935
937
936
938
936
934
937
940
945
950
952
949
945
946
950
954
954
951
951
955
956
955
954
956
956
957
953
951
953
955
954
958
958
959
960
958
958
958
960
961
961
963
965
966
969
966
966
964
963
962
963
964
964
964
965
971
972
971
966
970
973
977
978
977
976
976
979
979
979
975
974
975
977
981
981
981
981
979
980
986
989
991
990
989
994
995
994
995
993
991
992
992
989
991
991
994
991
993
993
991
992
992
993
994
993
990
989
987
986
989
986
986
983
979
979
979
975
973
972
975
981
982
982
980
978
978
980
983
982
981
979
983
983
985
993
997
999
1002
1006
1011
1016
1022
1022
1022
1022
1027
1032
1041
1045
1037
1031
1009
961
885
805
732
672
630
608
602
601
601
607
622
639
658
680
701
722
747
775
797
812
825
843
861
873
886
893
901
912
921
932
942
951
960
974
992
1005
1019
1025
1035
1041
1050
1055
1061
1067
1069
1077
1080
1087
1090
1094
1098
1103
1109
1108
1109
1109
1108
1112
1116
1117
1120
1124
1127
1131
1136
1138
1140
1144
1146
1148
1154
1159
1164
1163
1166
1167
1172
1173
1172
1171
1174
1178
1178
1179
1179
1175
1175
1179
1180
1178
1176
1172
1170
1169
1169
1167
1162
1158
1154
1148
1147
1143
1139
1134
1128
1120
1119
1110
1105
1098
1098
1093
1092
1086
1082
1078
1074
1072
1068
1066
1064
1057
1055
1053
1051
1049
1044
1041
1037
1036
1038
1038
1033
1028
1025
1025
1023
1021
1021
1018
1013
1013
1018
1016
1015
1017
1020
1022
1023
1020
1017
1018
1017
1018
1019
1018
1018
1016
1017
1015
1014
1013
1012
1011
1011
1015
1018
1029
1041
1050
1059
1066
1076
1081
1081
1084
1093
1101
1116
1129
1143
1154
1164
1180
1198
1210
1219
1230
1236
1244
1256
1273
1300
1324
1342
1359
1365
1370
1376
1380
1392
1405
1419
1431
1442
1441
1433
1411
1374
1329
1290
1248
1200
1145
1091
1042
999
964
938
927
923
919
911
909
907
904
904
899
896
893
888
885
884
883
878
874
869
869
869
867
865
862
858
854
854
853
854
853
851
851
852
854
852
849
849
849
848
845
839
837
834
833
834
828
822
819
816
819
824
826
820
817
823
827
828
829
829
831
831
832
832
837
837
839
838
843
851
856
857
859
862
867
870
872
878
888
895
902
907
912
917
920
925
930
935
935
938
942
946
950
956
961
964
962
963
965
969
972
976
975
977
981
983
986
987
987
984
987
989
989
989
987
983
983
983
984
985
982
978
979
981
979
982
981
983
985
983
988
986
985
987
987
989
990
992
992
991
992
993
991
991
991
993
993
995
995
998
1002
1000
1005
1005
1006
1003
1004
1004
1006
1007
1006
1006
1005
1005
1001
1003
1004
1004
1004
1005
1007
1009
1010
1010
1008
1007
1007
1012
1013
1013
1014
1014
1015
1015
1013
1011
1011
1010
1011
1013
1012
1010
1006
1004
1006
1006
1003
998
998
998
1000
1000
1002
1003
1003
1004
1007
1010
1007
1009
1006
1006
1008
1011
1004
1009
1005
1004
1006
1007
1005
1006
1004
1003
1006
1007
1004
1004
1000
1003
1006
1010
1011
1011
1009
1009
1008
1009
1010
1009
1009
1007
1008
1010
1008
1010
1009
1009
1012
1015
1018
1016
1014
1012
1013
1016
1014
1013
1009
1010
1012
1013
1014
1012
1009
1008
1011
1012
1012
1012
1014
1013
1012
1012
1010
1009
1010
1011
1012
1009
1008
1008
1008
1009
1011
1011
1010
1012
1008
1009
1007
1007
1005
1001
999
998
1001
1003
1004
1003
1000
999
1002
1007
1008
1009
1012
1013
1012
1008
1004
1004
999
1002
1005
1004
1004
1000
995
994
997
1001
1004
1005
1002
1002
999
1000
1001
1002
1003
1003
1005
1006
1006
1007
1002
1002
1004
1003
1001
1002
1002
1002
1000
1000
998
1002
1001
1004
1009
1013
1014
1016
1017
1017
1020
1018
1016
1015
1017
1016
1017
1018
1018
1016
1015
1015
1019
1016
1014
1012
1009
1011
1013
1013
1013
1010
1010
1011
1013
1013
1008
1007
1008
1008
1011
1010
1004
1005
1009
1016
1018
1021
1020
1019
1017
1015
1016
1019
1020
1019
1013
1011
1011
1015
1018
1016
1013
1008
1004
1007
1009
1009
1009
1004
1006
1005
1014
1029
1043
1056
1070
1092
1110
1130
1149
1174
1199
1221
1237
1240
1230
1206
1173
1127
1060
995
950
933
932
941
951
959
961
963
966
974
979
980
976
972
970
969
971
969
970
972
977
985
987
986
984
983
986
992
996
995
992
990
992
991
991
992
994
1000
1008
1010
1006
989
980
976
980
989
995
992
992
991
995
998
1000
1001
999
1001
1004
1008
1008
1006
1008
1010
1012
1017
1019
1022
1022
1024
1026
1031
1025
1020
1019
1018
1021
1022
1015
1011
1008
1013
1019
1026
1030
1031
1029
1029
1034
1037
1036
1036
1035
1039
1043
1040
1032
1025
1019
1024
1028
1030
1029
1027
1022
1022
1023
1021
1023
1029
1029
1028
1027
1030
1032
1033
1026
1018
1006
997
992
994
995
997
1001
1001
997
996
994
996
997
998
997
1001
1004
1009
1010
1006
999
998
997
1006
1015
1011
1020
1020
1020
1021
1031
1042
1047
1048
1042
1037
1034
1033
1032
1038
1032
1017
984
930
852
767
687
631
607
607
604
605
612
630
658
686
708
727
745
765
795
824
849
870
882
889
900
904
904
901
902
913
929
950
963
980
994
1007
1018
1025
1036
1047
1054
1060
1067
1076
1085
1092
1097
1096
1100
1103
1103
1098
1093
1093
1103
1110
1116
1114
1110
1110
1118
1130
1137
1142
1144
1144
1141
1142
1148
1152
1155
1151
1151
1154
1156
1159
1159
1157
1158
1158
1160
1161
1165
1167
1173
1172
1171
1168
1161
1159
1151
1145
1145
1147
1145
1138
1129
1124
1121
1121
1117
1109
1105
1104
1104
1106
1102
1092
1080
1072
1068
1063
1061
1053
1047
1044
1045
1048
1044
1036
1028
1028
1029
1031
1031
1031
1029
1026
1023
1021
1018
1014
1012
1017
1017
1018
1015
1014
1017
1020
1024
1025
1028
1033
1035
1031
1023
1015
1006
1005
1001
995
995
994
999
1003
1008
1010
1012
1010
1007
1008
1013
1021
1023
1018
1009
1001
1004
1009
1013
1012
1011
998
984
979
983
993
999
1000
999
1001
1000
1000
998
996
997
1001
1002
1001
1003
1004
1010
1013
1012
1011
1008
1007
1005
1008
1008
1006
1004
1002
1002
1003
1001
1003
1006
1009
1008
1008
1006
1008
1010
1010
1016
1020
1016
1011
1001
999
1001
1003
1003
1000
999
997
994
996
995
998
1000
1000
1002
1000
998
997
998
1001
1007
1007
1005
999
999
1005
1008
1009
1010
1007
1009
1011
1011
1007
999
996
996
999
1008
1018
1018
1016
1011
1008
1015
1016
1016
1015
1013
1013
1014
1015
1016
1012
1008
1005
1006
1007
1005
1003
1004
1002
1004
1003
1008
1008
1006
1006
1008
1010
1009
1007
1005
1005
1007
1013
1018
1010
1001
995
997
1003
1007
1006
1002
998
1001
1005
1003
1005
1004
1005
1008
1007
1005
998
994
996
1004
1019
1035
1059
1079
1100
1122
1147
1175
1204
1233
1254
1262
1252
1227
1181
1106
1030
981
960
955
961
973
979
986
985
981
977
977
972
970
970
970
971
969
971
976
980
980
977
975
978
982
984
983
983
981
981
984
988
988
985
982
981
983
983
981
981
981
984
988
991
991
989
988
990
992
993
994
992
994
993
993
994
992
992
990
991
993
994
997
995
996
998
998
1000
999
1001
997
997
998
1001
1007
1004
999
997
998
1002
1002
1003
1004
1004
1006
1007
1012
1012
1008
1008
1008
1011
1011
1009
1010
1008
1008
1008
1010
1011
1009
1008
1008
1007
1005
1003
1001
999
1003
1006
1006
1003
1000
998
999
1002
1002
999
997
998
996
992
993
990
986
982
983
986
987
988
987
990
989
990
987
987
983
985
987
988
986
986
986
987
989
990
995
996
994
991
998
1004
1006
1008
1007
1010
1015
1018
1020
1031
1050
1067
1071
1063
1057
1051
1033
995
924
834
748
687
658
647
648
642
645
645
653
664
693
725
749
765
777
787
804
824
838
849
860
871
884
899
911
917
922
927
932
935
937
942
950
963
981
996
1008
1018
1028
1034
1038
1043
1041
1046
1051
1056
1060
1064
1064
1067
1068
1073
1076
1083
1088
1093
1095
1101
1105
1109
1111
1115
1114
1117
1122
1125
1127
1129
1128
1132
1134
1133
1134
1136
1142
1145
1145
1145
1145
1145
1145
1144
1146
1148
1144
1140
1132
1130
1129
1128
1123
1121
1116
1110
1105
1101
1095
1093
1086
1082
1076
1075
1069
1064
1058
1053
1050
1048
1042
1037
1033
1028
1023
1023
1019
1017
1015
1010
1008
1008
1006
1005
999
997
999
1004
1008
1010
1011
1009
1013
1019
1026
1035
1042
1050
1060
1066
1071
1077
1084
1092
1106
1126
1143
1159
1174
1191
1214
1240
1269
1297
1322
1342
1356
1360
1356
1357
1352
1327
1276
1200
1119
1048
997
951
910
891
890
895
898
901
900
901
900
897
897
897
902
904
903
903
901
895
893
892
891
888
882
881
883
889
892
893
889
877
867
861
858
857
858
857
859
859
860
858
854
850
847
841
838
837
839
842
842
841
840
842
845
849
852
853
855
855
853
849
848
849
850
846
843
841
844
848
849
847
845
846
850
853
853
857
859
862
866
870
874
877
882
882
888
894
900
902
905
906
909
914
915
920
917
916
915
921
925
928
931
930
935
941
943
945
947
947
950
955
956
957
957
955
960
961
961
961
958
959
958
959
961
964
962
963
965
966
968
969
967
966
969
970
971
972
972
973
973
975
975
971
972
976
979
980
978
973
973
975
980
981
981
980
981
981
984
984
985
982
983
983
983
986
985
983
982
979
982
984
985
988
983
983
984
985
986
987
985
984
986
987
988
988
986
986
986
989
988
988
987
988
989
992
991
990
986
986
987
987
986
984
985
988
991
992
992
993
993
994
995
996
997
996
992
991
993
996
996
995
991
990
992
994
996
994
991
990
994
998
1000
998
998
996
995
994
995
998
999
996
997
998
999
997
996
997
998
998
999
998
994
993
992
994
994
994
992
991
996
999
1003
1001
997
1000
1000
1002
1003
1000
996
992
993
994
994
998
996
992
995
997
1000
1001
997
993
995
998
1002
1002
999
996
997
998
996
995
997
995
997
997
995
994
992
989
990
990
989
988
986
988
987
992
995
993
993
993
990
992
989
989
990
992
996
997
996
998
996
993
994
995
996
994
996
993
997
999
1000
1001
998
999
998
1001
1000
1000
998
999
1000
998
1000
997
999
999
998
1002
1002
1003
1002
1001
1003
1006
1010
1012
1013
1016
1016
1015
1014
1014
1011
1012
1016
1015
1013
1011
1006
1004
1004
1001
999
998
993
994
994
993
994
993
996
995
996
995
993
991
991
989
988
989
993
996
995
992
987
992
987
983
979
977
978
982
983
984
983
986
989
991
991
991
989
986
986
985
983
980
975
978
986
1001
1020
1036
1055
1075
1092
1107
1129
1154
1176
1202
1228
1251
1262
1256
1239
1211
1159
1080
1004
951
930
924
928
937
944
952
954
953
954
955
954
954
955
953
952
953
954
955
955
955
961
964
965
964
963
961
964
964
966
965
963
963
966
967
966
967
968
966
965
967
966
965
965
963
966
969
970
969
971
970
969
972
974
975
974
969
973
974
975
975
974
975
977
981
981
981
981
980
984
986
989
991
989
987
985
988
988
991
992
993
994
997
998
994
993
992
998
1000
1001
999
997
999
1001
1005
1006
1005
1006
1007
1011
1010
1013
1011
1012
1010
1013
1015
1014
1015
1015
1013
1014
1014
1015
1011
1009
1013
1016
1020
1016
1017
1018
1014
1017
1017
1015
1014
1013
1012
1013
1013
1012
1013
1009
1008
1006
1005
1006
1004
1002
1000
1001
1003
1001
1002
1000
997
999
999
997
1000
997
996
998
997
998
997
995
995
994
995
992
992
991
990
991
995
995
994
991
992
995
999
1000
999
996
999
1001
1006
1009
1008
1007
1003
997
994
994
998
1005
1018
1032
1043
1046
1047
1050
1051
1049
1030
982
910
830
760
704
668
650
647
645
649
654
661
672
686
705
726
748
765
777
787
795
803
816
832
848
864
875
884
898
911
924
928
927
928
934
940
948
954
959
969
984
1000
1015
1025
1030
1032
1036
1038
1042
1044
1045
1045
1050
1055
1063
1067
1067
1067
1069
1071
1074
1078
1079
1079
1086
1091
1094
1095
1093
1094
1097
1101
1107
1111
1117
1118
1121
1121
1117
1118
1121
1128
1134
1134
1131
1127
1127
1127
1130
1131
1133
1132
1128
1128
1131
1132
1137
1134
1127
1115
1113
1112
1109
1106
1097
1087
1084
1083
1082
1076
1067
1059
1056
1053
1052
1049
1046
1039
1036
1031
1028
1027
1025
1019
1018
1015
1013
1008
1003
998
999
1001
998
994
989
987
990
992
994
990
983
977
979
982
986
982
981
976
977
977
977
979
976
975
979
982
983
980
972
971
972
975
978
975
977
975
975
974
972
971
968
965
967
968
969
969
967
965
968
972
975
975
969
966
970
973
974
971
967
967
971
974
974
969
968
965
968
971
974
973
968
966
967
969
970
971
971
970
972
974
972
972
974
973
975
974
974
973
970
967
970
972
974
972
967
967
969
973
974
971
971
970
974
974
970
971
970
969
972
973
974
977
975
969
967
967
970
970
970
968
969
973
977
982
984
985
984
983
982
981
979
981
982
984
986
985
985
982
981
982
981
976
972
970
972
974
975
976
974
974
974
976
974
974
973
969
967
968
969
971
972
972
974
974
973
973
973
971
971
967
964
963
964
964
963
968
968
967
968
972
975
976
972
972
972
974
975
973
970
966
956
955
961
969
982
997
1014
1033
1052
1071
1084
1099
1119
1142
1170
1193
1207
1204
1184
1160
1128
1083
1018
952
909
888
887
896
909
917
922
921
928
935
944
945
943
937
938
940
941
942
942
944
949
950
951
947
949
947
948
949
951
952
952
955
957
958
954
951
949
953
953
952
956
957
954
958
960
963
957
957
954
957
961
963
966
962
959
957
959
962
964
964
964
960
965
966
969
965
962
960
959
960
959
958
956
957
962
965
964
965
964
961
966
969
969
971
971
971
971
968
969
975
975
976
979
985
987
979
973
969
973
979
983
982
984
980
981
982
983
986
985
983
983
985
985
978
972
972
976
980
984
983
980
977
976
976
973
973
975
978
976
978
975
978
980
980
979
978
977
977
975
973
978
978
979
977
977
976
979
979
982
985
987
984
982
977
974
974
975
973
973
976
975
976
982
982
985
987
988
990
989
989
990
994
996
994
992
991
990
994
994
990
986
985
985
985
983
982
979
979
982
985
986
983
979
980
982
984
987
986
986
987
993
998
998
997
994
989
988
987
985
983
981
977
980
988
988
985
983
985
988
988
986
986
984
985
986
988
988
985
979
975
979
986
997
1010
1026
1044
1061
1084
1105
1126
1147
1174
1204
1229
1248
1254
1243
1221
1185
1124
1040
977
945
931
930
934
945
956
962
962
963
963
962
963
963
961
961
961
961
962
957
959
963
968
970
973
972
972
971
968
964
965
968
967
968
971
970
970
972
969
971
974
974
975
972
973
975
974
976
977
978
976
978
981
983
984
985
986
989
992
994
992
990
991
992
998
1001
1001
1000
1003
1005
1008
1008
1007
1007
1010
1014
1016
1016
1015
1015
1015
1018
1017
1020
1019
1019
1022
1022
1025
1024
1023
1021
1022
1019
1019
1019
1015
1012
1011
1013
1014
1011
1013
1009
1008
1007
1009
1008
1006
1005
1005
1006
1002
1003
1001
1002
998
997
995
997
996
994
995
995
996
996
1000
1000
995
994
989
987
988
986
987
987
983
985
983
982
979
977
981
979
979
976
974
977
979
982
979
981
977
980
983
985
985
987
986
989
990
991
990
992
993
996
997
998
999
993
992
992
992
991
992
992
989
992
991
991
992
988
985
986
990
996
996
994
994
998
999
1001
995
989
986
988
988
991
988
985
983
987
988
990
989
988
988
987
992
991
997
994
989
988
989
992
1001
1013
1034
1055
1075
1092
1112
1135
1162
1195
1227
1247
1252
1244
1222
1192
1137
1060
996
959
948
947
953
960
974
980
981
978
975
976
971
965
960
957
960
962
964
966
967
973
974
972
972
973
973
973
974
974
973
972
971
970
974
977
976
973
971
971
971
976
978
977
980
980
982
984
983
982
982
984
987
988
989
989
985
989
986
989
992
993
991
994
997
1001
1001
998
1000
1003
1008
1012
1012
1009
1008
1008
1009
1013
1013
1013
1014
1018
1019
1021
1020
1018
1014
1015
1014
1016
1018
1016
1016
1012
1017
1015
1012
1008
1004
1000
1002
999
998
997
997
998
998
995
993
990
991
993
1000
1001
999
995
993
992
994
994
993
992
989
988
989
986
986
984
982
980
983
983
981
980
979
977
978
981
983
981
978
977
976
976
975
977
973
972
972
972
972
971
970
970
974
975
975
975
972
976
979
979
980
980
984
988
990
985
979
975
974
977
977
976
975
973
971
971
974
975
976
974
974
975
974
976
977
979
977
980
982
983
979
976
974
974
976
973
969
968
966
968
972
975
976
974
972
971
970
972
974
974
977
977
980
982
980
976
972
967
968
976
991
1005
1022
1039
1058
1078
1092
1110
1131
1160
1187
1201
1198
1176
1154
1120
1078
1016
960
925
907
906
917
929
938
943
942
945
953
956
952
950
944
945
946
951
953
959
961
963
962
961
957
953
955
959
961
959
959
957
958
958
957
960
962
966
966
966
965
967
968
970
968
967
966
969
971
970
975
975
976
974
977
979
981
982
984
984
987
988
988
992
995
997
996
994
997
996
1000
1002
1003
1002
1003
1002
1005
1004
1005
1007
1005
1006
1005
1006
1006
1004
1003
1002
1004
1006
1001
997
995
993
993
992
989
986
983
981
983
984
983
978
980
980
978
977
979
978
978
980
978
976
974
970
969
970
970
970
970
969
969
970
969
966
967
965
964
961
965
962
962
962
962
964
962
965
963
960
958
957
957
957
955
952
950
957
960
961
962
960
959
962
965
964
963
965
967
971
972
969
972
966
963
962
962
962
958
954
953
956
959
963
964
962
961
961
963
966
968
968
967
967
970
969
971
968
966
964
965
964
963
958
959
959
961
961
962
960
959
959
962
964
962
962
962
963
966
965
965
962
958
959
958
958
960
965
977
995
1013
1033
1053
1071
1088
1109
1130
1154
1176
1194
1209
1213
1203
1183
1149
1093
1021
957
919
903
898
899
906
919
925
929
931
931
931
940
942
940
939
936
936
939
941
943
945
947
948
951
954
955
956
955
951
952
955
957
957
954
952
955
958
960
960
960
958
959
961
962
966
964
960
961
961
963
964
962
960
962
962
966
965
967
966
969
971
973
974
976
980
982
985
986
988
987
986
988
990
991
990
991
992
994
996
998
998
999
999
1002
1000
1004
1004
1004
1002
1005
1007
1005
1005
1004
1001
1003
1001
1004
998
993
990
990
991
991
992
990
991
990
987
989
989
989
987
989
989
989
989
990
988
986
986
987
986
986
986
984
984
986
985
984
982
984
983
984
983
982
979
980
982
981
981
981
979
980
981
977
981
980
981
982
984
988
989
991
986
986
984
987
986
984
980
979
979
980
978
975
976
974
972
976
980
976
972
974
975
980
981
978
978
978
983
981
983
980
978
979
980
978
978
974
976
975
978
980
981
979
978
984
989
988
987
984
981
981
982
978
976
976
984
1002
1026
1047
1069
1089
1110
1131
1159
1187
1217
1238
1249
1247
1228
1194
1129
1043
977
944
936
942
949
957
962
966
967
967
967
962
959
956
955
954
954
952
954
961
965
966
963
960
959
962
967
968
967
965
962
960
964
967
968
969
966
968
970
971
972
968
967
967
971
974
974
970
975
975
977
982
983
983
980
985
988
991
992
990
993
993
996
996
996
998
997
998
1002
1008
1009
1010
1010
1014
1018
1021
1020
1022
1020
1020
1017
1018
1021
1021
1021
1021
1017
1016
1014
1013
1012
1013
1014
1016
1014
1009
1006
1005
1004
1004
1000
1001
1000
1005
1006
1004
1000
997
996
996
997
997
995
992
992
990
991
991
989
991
991
990
993
993
992
992
988
988
992
992
986
975
970
970
973
977
980
975
968
966
970
973
973
972
968
972
976
978
979
979
978
982
984
987
987
984
982
979
977
977
977
980
973
975
973
974
972
970
970
975
977
975
975
972
972
976
980
984
981
975
980
981
981
982
981
975
976
979
981
985
979
969
960
962
970
977
976
974
973
973
974
975
976
975
970
969
971
975
977
970
968
970
977
987
1003
1017
1033
1051
1071
1092
1117
1138
1163
1185
1201
1211
1210
1190
1162
1124
1069
1014
973
949
932
932
944
960
970
970
961
952
946
949
949
947
947
947
944
948
947
946
951
954
959
959
959
962
961
961
962
959
958
957
957
963
962
962
963
965
962
959
960
963
969
970
967
966
969
971
971
971
972
974
979
982
984
983
982
983
984
987
983
982
984
986
989
991
990
990
988
992
993
992
993
997
1000
1003
1007
1008
1008
1010
1008
1010
1009
1008
1007
1005
1004
1003
1003
1003
1000
996
995
996
996
995
995
992
991
988
992
990
990
986
985
985
983
983
984
981
980
983
982
983
983
980
978
979
978
979
977
978
976
979
979
981
978
978
974
971
971
971
971
970
970
971
968
968
965
969
964
961
964
968
973
973
970
969
970
971
972
972
974
975
976
981
981
984
982
980
973
970
972
974
972
975
974
977
976
973
971
973
976
976
979
977
975
976
978
982
983
983
981
981
981
978
973
970
971
971
974
973
972
971
966
966
969
967
969
967
962
968
971
975
974
966
962
963
965
970
979
991
1006
1025
1047
1071
1085
1096
1112
1135
1163
1185
1197
1194
1176
1152
1116
1059
995
946
918
906
904
911
920
927
930
935
941
946
948
944
939
938
941
945
945
947
944
948
955
959
961
960
958
959
961
964
968
965
961
964
965
967
968
966
965
966
967
972
973
970
970
969
968
969
972
972
972
972
976
980
983
983
981
982
986
989
986
987
989
991
992
992
994
993
993
996
999
997
1001
1000
1002
1004
1005
1007
1009
1008
1009
1010
1013
1016
1019
1019
1015
1011
1012
1010
1008
1008
1006
1008
1008
1004
1006
1005
1003
1003
1004
1002
999
999
998
997
996
995
994
995
992
990
988
987
985
983
981
980
983
987
990
987
985
984
985
987
989
987
983
980
980
982
982
984
979
980
981
982
981
980
976
977
977
978
978
978
977
974
973
973
973
972
973
973
975
976
975
975
976
975
977
980
983
981
979
980
982
984
986
984
982
984
987
988
988
984
978
979
981
983
982
983
978
977
977
978
979
979
977
978
978
978
979
975
972
976
978
981
985
986
985
987
986
985
982
981
981
981
981
980
982
982
978
981
981
983
985
981
980
982
984
986
987
985
984
984
985
986
984
986
982
982
982
985
991
999
1008
1025
1042
1057
1073
1085
1099
1117
1141
1169
1197
1222
1241
1254
1257
1249
1232
1204
1155
1081
1011
966
948
940
937
940
947
957
964
964
965
966
968
971
968
963
958
958
961
959
958
960
960
965
967
969
971
974
973
976
976
977
976
976
974
976
976
976
973
971
971
971
975
977
974
975
972
975
976
978
978
978
975
976
979
981
983
982
979
979
981
984
984
986
985
989
990
988
986
987
984
985
990
995
996
995
996
998
1001
1004
1004
1003
1002
1006
1009
1011
1008
1010
1008
1011
1011
1013
1014
1014
1016
1014
1017
1018
1016
1018
1016
1017
1020
1020
1019
1016
1013
1011
1014
1013
1017
1015
1013
1012
1012
1011
1011
1009
1006
1002
1001
1005
1003
1001
1000
1001
1003
1005
1002
1001
995
999
998
1001
1002
1000
997
996
998
999
999
998
1001
1003
1003
1004
1005
1006
1002
1002
1002
1005
1006
1006
1003
1000
998
999
994
993
993
993
993
993
991
990
989
992
993
996
994
992
990
989
986
985
983
983
979
978
978
979
980
977
980
982
976
974
968
963
967
972
974
976
975
976
974
978
980
981
980
974
972
974
977
979
977
974
974
976
979
981
982
981
976
974
972
971
973
980
991
1010
1025
1039
1057
1069
1086
1102
1121
1146
1171
1195
1216
1237
1248
1246
1228
1210
1181
1135
1071
1013
974
949
934
928
932
945
957
965
965
964
963
963
963
959
955
954
955
955
954
953
950
951
954
956
959
961
962
965
966
964
962
962
961
964
966
969
970
970
967
965
964
965
964
966
962
964
966
968
967
967
967
969
970
973
974
972
973
974
979
982
983
983
984
985
986
988
991
992
991
995
998
1000
1001
1001
999
1004
1002
1007
1010
1008
1005
1012
1018
1021
1023
1022
1020
1021
1023
1023
1024
1025
1023
1025
1023
1023
1021
1021
1020
1021
1018
1018
1015
1014
1011
1011
1011
1007
1009
1007
1004
1003
1004
1005
1007
1004
1001
997
996
996
997
995
991
992
993
994
995
994
994
995
994
993
992
990
989
987
988
990
984
983
985
985
987
986
981
976
974
974
978
979
978
974
971
971
970
977
978
979
978
976
975
972
970
969
968
968
973
975
975
973
968
970
973
975
976
975
971
971
974
977
979
979
978
980
982
982
984
984
980
983
986
986
984
981
979
979
981
987
985
983
980
980
984
987
987
988
986
984
985
986
984
984
984
987
987
986
985
985
983
982
980
980
983
984
986
989
991
995
995
996
993
995
997
998
999
998
996
995
994
995
995
994
992
991
991
991
994
997
995
997
1000
997
990
989
985
983
986
984
984
984
982
981
982
983
980
981
981
982
982
983
982
983
982
984
984
985
984
984
979
974
976
984
995
1008
1020
1038
1058
1079
1101
1122
1144
1172
1198
1216
1218
1203
1180
1153
1105
1044
989
955
934
927
926
933
941
949
952
955
957
958
960
958
955
954
955
959
962
963
962
961
963
962
961
961
960
959
960
962
962
959
961
963
964
967
966
961
962
963
966
970
969
969
965
966
967
967
971
970
971
973
973
974
974
973
970
970
970
969
973
975
976
976
979
980
981
984
981
985
988
990
989
988
986
989
990
989
989
988
986
989
992
996
993
994
994
999
1004
1008
1004
1004
998
1001
1003
1007
1006
1002
1002
1001
1006
1007
1009
1007
1002
1002
997
999
999
996
995
995
992
995
995
995
993
992
992
995
995
993
991
988
989
993
990
986
984
980
980
983
986
986
987
983
983
988
987
984
983
982
983
987
983
981
976
974
975
980
978
977
972
970
971
973
975
974
972
973
970
971
973
972
976
977
981
986
988
988
987
989
990
997
1002
1007
1008
1012
1014
1021
1031
1039
1054
1071
1079
1079
1073
1064
1048
1011
940
847
756
691
655
635
626
625
629
632
639
652
680
710
738
756
769
787
808
827
844
855
864
875
890
904
917
919
920
928
934
941
952
967
983
997
1006
1013
1019
1017
1023
1031
1039
1047
1050
1050
1053
1060
1070
1078
1080
1082
1080
1081
1090
1092
1098
1104
1104
1105
1108
1108
1113
1119
1121
1124
1129
1131
1138
1139
1141
1149
1149
1147
1147
1147
1151
1150
1152
1150
1147
1148
1144
1141
1137
1132
1127
1122
1117
1112
1105
1095
1093
1085
1080
1073
1071
1069
1063
1052
1045
1040
1042
1044
1040
1032
1032
1028
1023
1020
1016
1016
1016
1013
1012
1007
1006
1006
1006
1007
1010
1008
1007
1006
1006
1010
1009
1010
1002
1003
1003
1004
1004
1004
1005
1006
1004
1006
1004
998
998
996
998
1000
1004
1005
1002
1002
997
997
996
997
995
993
993
993
994
998
996
995
993
996
997
1001
998
996
995
998
998
999
998
996
995
998
998
999
998
995
992
997
999
999
995
992
992
994
999
1004
1002
1006
1005
1005
1000
997
999
1001
999
996
1000
1002
1005
1003
996
994
997
1001
998
993
993
997
996
996
999
998
1000
1004
1005
1006
1008
1008
1001
995
991
988
992
994
994
995
998
1000
1001
1001
999
1000
1000
1000
1001
1000
1000
1000
1003
1009
1010
1002
997
993
998
1004
1007
999
988
987
988
991
993
996
999
996
995
997
996
999
997
994
993
998
999
1000
998
998
997
997
999
1000
996
999
1000
1000
999
1001
1004
1005
1005
1009
1012
1010
1000
991
987
995
998
999
1000
999
1003
1006
1007
1010
1011
1014
1014
1013
1012
1013
1015
1014
1013
1011
1010
1008
1010
1013
1015
1015
1012
1005
1003
1003
1004
1007
1004
1000
998
997
997
998
999
1006
1002
1007
1006
1008
1012
1007
1003
999
1003
1006
999
997
999
1000
1003
1007
1009
1008
1004
1002
1002
1003
1004
1001
993
989
997
1008
1026
1044
1063
1087
1107
1129
1157
1188
1219
1244
1264
1268
1254
1221
1170
1090
1016
972
962
960
969
979
988
989
987
986
983
979
977
978
974
973
972
972
972
980
984
983
979
977
980
979
980
980
977
979
980
979
981
976
976
978
982
986
985
986
985
987
985
984
989
990
988
989
989
992
994
992
989
990
992
995
993
992
994
996
994
995
994
993
991
995
994
995
988
987
987
986
988
992
992
991
990
992
995
995
995
994
994
998
998
1002
1003
1002
1000
1000
999
1002
1004
1004
1002
1004
1008
1012
1012
1007
1006
1009
1011
1014
1015
1014
1013
1013
1011
1010
1011
1010
1006
1005
1001
1004
1004
1002
1000
999
999
998
995
997
994
995
998
996
998
995
992
992
989
988
988
986
984
986
987
991
989
987
984
983
986
990
991
995
996
997
1003
1011
1014
1016
1016
1019
1021
1019
1009
1001
997
989
972
948
909
846
771
704
654
617
598
594
596
601
610
625
644
667
687
705
725
743
765
790
812
832
843
857
867
877
886
896
907
916
924
934
943
954
966
976
990
1003
1010
1025
1034
1043
1044
1044
1044
1046
1048
1055
1064
1072
1074
1076
1081
1091
1095
1096
1098
1101
1099
1101
1107
1113
1113
1115
1114
1119
1120
1123
1125
1127
1133
1138
1141
1140
1139
1140
1144
1149
1147
1149
1147
1147
1149
1150
1148
1147
1144
1143
1144
1141
1139
1137
1128
1122
1118
1114
1113
1108
1102
1095
1093
1089
1082
1077
1068
1066
1065
1063
1060
1051
1045
1039
1036
1037
1034
1030
1024
1025
1021
1015
1010
1008
1005
1010
1013
1014
1012
1015
1013
1013
1014
1012
1013
1018
1017
1021
1022
1023
1027
1027
1029
1035
1041
1052
1058
1060
1062
1066
1076
1089
1103
1107
1116
1134
1161
1190
1215
1232
1240
1251
1264
1273
1268
1240
1188
1124
1068
1021
971
923
882
861
853
848
845
844
844
849
852
859
862
864
867
873
880
891
901
906
907
909
914
919
915
915
910
910
910
909
906
901
902
904
900
901
903
902
898
896
897
898
899
900
902
908
908
910
906
909
908
908
908
911
911
913
911
914
916
919
918
918
916
920
925
927
928
928
929
931
936
939
938
938
939
945
953
957
960
961
961
965
967
970
972
974
973
975
974
976
976
974
974
976
980
983
984
981
977
975
980
983
982
981
981
981
981
983
984
983
980
979
979
979
980
976
977
977
976
978
983
983
980
982
981
983
984
983
983
986
989
993
993
991
987
988
990
993
996
997
995
995
995
998
996
997
994
991
994
994
996
996
996
998
1000
1002
1003
1002
997
997
1000
1003
1000
999
995
995
994
999
1000
997
996
994
994
998
996
992
990
991
991
994
997
999
996
998
999
1000
999
999
995
994
995
995
995
994
992
996
996
998
995
994
992
993
994
997
997
992
990
989
996
1002
1000
997
995
999
1001
1002
1000
999
998
994
995
997
998
996
995
994
995
996
997
998
996
993
999
998
997
996
994
995
995
996
995
995
993
991
992
989
990
993
992
993
995
993
990
990
992
992
995
996
999
999
994
996
993
994
999
995
993
992
995
998
999
1000
997
996
998
999
998
997
996
996
999
1000
1000
997
997
996
996
994
990
987
988
991
996
1000
1000
998
993
992
991
993
991
993
994
996
995
1000
999
995
994
995
993
992
991
993
994
996
998
998
1000
1000
998
997
999
1000
1002
1000
1000
998
998
997
998
1000
998
1000
1000
1001
1000
999
997
999
997
997
994
995
998
998
998
1000
998
999
994
998
999
1000
1000
996
993
993
991
993
996
996
996
995
995
999
1000
999
997
994
997
998
1003
1006
1006
1009
1010
1015
1014
1016
1011
1011
1012
1010
1013
1014
1009
1011
1012
1012
1014
1011
1009
1007
1008
1011
1011
1007
1004
1004
1005
1008
1004
1000
997
998
1000
1001
1003
999
997
995
994
995
993
991
993
998
1004
1010
1012
1014
1014
1007
1007
1005
1002
1001
998
1004
1008
1003
1002
998
999
1003
1003
1007
1006
1006
1002
1002
1003
1002
998
993
989
991
994
1007
1020
1037
1050
1068
1081
1097
1117
1136
1157
1182
1204
1226
1240
1244
1237
1225
1205
1175
1124
1060
1002
965
947
939
941
946
953
961
967
969
967
963
963
963
960
962
963
963
960
956
957
963
966
967
967
970
970
976
976
973
968
971
971
975
973
971
969
969
972
972
975
974
970
968
969
970
971
972
970
972
972
975
974
972
970
971
974
980
979
979
979
981
981
983
984
982
980
980
981
984
986
986
983
982
982
982
984
984
984
984
984
986
988
992
992
993
995
993
994
992
991
994
997
999
1001
1000
998
998
997
999
997
998
997
997
997
1000
1003
1003
1001
1001
1003
1009
1009
1008
1009
1013
1011
1013
1013
1010
1010
1010
1012
1012
1007
1005
1002
1003
1004
1006
1007
1005
1000
999
1000
1001
1002
1000
999
1000
1001
1001
1000
1001
996
990
992
993
992
991
991
991
989
990
986
986
985
987
990
992
991
987
985
983
985
988
989
991
991
994
998
1002
1002
1002
1001
1002
1003
1005
1006
1009
1008
1006
1002
1000
1003
1009
1017
1024
1028
1032
1031
1027
1018
1002
971
916
847
776
722
681
652
640
636
638
642
647
660
672
690
706
723
740
758
775
791
804
821
840
860
880
895
912
923
933
940
945
945
942
933
935
939
946
956
964
978
993
1006
1012
1019
1026
1028
1035
1041
1047
1051
1055
1059
1065
1069
1072
1075
1074
1072
1072
1073
1078
1082
1081
1082
1086
1093
1097
1099
1104
1106
1110
1116
1120
1122
1121
1121
1121
1120
1125
1124
1126
1127
1128
1131
1133
1136
1134
1133
1132
1130
1129
1131
1128
1124
1122
1121
1121
1117
1112
1108
1107
1102
1097
1091
1086
1082
1080
1081
1078
1076
1069
1061
1057
1055
1052
1050
1044
1035
1035
1034
1034
1031
1024
1016
1013
1014
1014
1013
1010
1006
1007
1005
1005
1003
1001
994
992
994
993
990
988
988
989
991
993
991
987
988
986
986
988
986
986
983
984
986
988
988
988
986
983
982
985
986
984
981
983
985
990
990
991
986
987
986
986
987
985
981
979
977
981
982
980
976
975
977
974
974
976
976
979
983
982
983
981
978
980
981
983
979
977
973
973
975
977
980
979
975
973
977
978
980
982
978
978
977
981
979
982
978
982
982
980
980
976
976
976
976
981
981
981
980
981
980
982
982
977
974
975
978
982
983
980
978
977
977
983
987
982
978
977
979
982
983
982
978
977
975
977
977
979
982
984
981
984
985
982
983
988
991
993
992
990
986
985
987
987
988
986
982
983
987
992
991
987
985
988
992
990
987
984
978
982
989
993
994
994
993
995
999
1000
1000
996
996
997
997
1002
1005
1005
1002
1003
1001
1002
1002
998
993
997
995
998
999
997
996
994
995
992
991
985
983
982
986
992
992
993
993
994
993
995
995
998
1000
1002
1004
1005
1002
999
993
992
994
997
997
993
992
991
995
994
994
996
992
994
994
993
990
988
987
998
1011
1024
1039
1059
1079
1099
1123
1147
1174
1197
1221
1240
1244
1234
1209
1168
1106
1029
971
940
928
928
936
948
960
961
959
959
962
965
961
960
958
957
959
962
967
972
974
976
978
978
980
985
984
979
975
979
981
982
984
984
984
985
982
979
976
979
980
984
984
985
985
985
983
990
989
994
994
991
987
988
987
988
992
994
987
988
987
988
990
991
987
988
989
989
990
988
985
989
992
997
995
991
988
989
992
992
992
989
985
985
986
989
990
993
995
997
998
999
1002
1004
1004
1005
1009
1012
1012
1007
1008
1007
1009
1010
1010
1006
1006
1007
1008
1014
1017
1018
1017
1010
1010
1010
1019
1016
1012
1009
1007
1009
1012
1011
1010
1013
1014
1012
1010
1004
1003
1004
1005
1002
999
992
990
992
1001
1007
1007
1007
1005
1006
1006
1006
1009
1011
1015
1021
1022
1019
1009
1004
1004
1007
1010
1013
1007
999
989
990
993
1000
1005
1006
1006
1009
1010
1011
1016
1019
1019
1023
1023
1018
1015
1018
1022
1022
1023
1025
1024
1025
1025
1025
1024
1023
1019
1016
1014
1012
1020
1024
1023
1018
1016
1022
1034
1041
1039
1024
1006
993
992
1003
1010
1011
1000
999
1000
1008
1013
1015
1012
1007
1009
1009
1015
1024
1033
1039
1046
1034
1018
1004
998
1002
1008
1001
993
992
998
1010
1019
1019
1013
1001
990
982
983
993
1019
1047
1069
1085
1101
1122
1145
1174
1198
1222
1242
1251
1246
1238
1225
1197
1133
1059
1001
971
959
949
946
949
954
965
973
984
994
1003
1009
1007
1001
993
976
954
938
939
961
985
998
991
974
963
966
978
987
980
969
958
954
960
972
987
999
1004
1004
1012
1025
1028
1002
968
944
942
957
974
983
997
1003
999
982
973
970
969
970
974
982
993
1006
1012
1006
1003
1002
1010
1022
1028
1034
1042
1044
1033
1007
980
965
967
982
997
1006
1012
1015
1014
1017
1027
1035
1035
1026
1023
1024
1032
1047
1051
1036
1010
990
978
979
984
992
998
1010
1023
1035
1034
1023
1009
1005
1000
1001
1003
1008
1019
1025
1019
1004
992
992
1000
1016
1030
1041
1036
1013
979
971
993
1018
1019
997
989
1003
1024
1019
994
980
995
1017
1013
980
944
929
939
952
964
971
979
985
985
987
986
986
988
988
988
981
978
984
988
989
993
1002
1014
1033
1050
1060
1058
1042
1030
1033
1050
1075
1085
1075
1037
975
914
872
843
813
787
773
753
727
698
671
655
648
645
641
640
640
642
640
642
642
651
655
654
660
674
696
721
742
762
781
804
828
854
879
906
920
915
901
880
878
897
923
945
960
969
972
981
994
1012
1042
1084
1119
1119
1089
1056
1037
1045
1068
1082
1088
1097
1107
1116
1117
1121
1126
1135
1144
1152
1156
1161
1163
1167
1174
1175
1173
1170
1159
1158
1155
1162
1163
1162
1165
1174
1176
1176
1185
1193
1200
1206
1209
1208
1197
1187
1189
1198
1204
1203
1200
1199
1195
1189
1182
1187
1193
1196
1185
1176
1166
1163
1160
1156
1150
1142
1136
1129
1124
1123
1120
1112
1103
1099
1096
1096
1092
1087
1079
1076
1073
1068
1063
1061
1056
1053
1049
1048
1046
1044
1035
1030
1027
1028
1026
1019
1016
1025
1028
1027
1029
1038
1038
1034
1027
1020
1018
1023
1033
1024
1005
1003
1019
1029
1016
989
967
960
967
978
980
981
980
981
985
990
992
992
999
1004
1000
995
992
996
998
997
999
1001
1005
998
983
979
985
998
1001
996
988
984
988
987
983
984
989
1001
1004
1002
994
993
995
990
982
975
974
983
989
990
982
977
977
985
999
998
989
978
976
983
992
996
994
994
991
992
996
998
993
992
990
991
996
996
994
996
998
998
988
979
979
983
986
987
999
1013
1021
1021
1016
1007
994
978
968
969
979
988
993
993
997
1004
1006
1001
990
980
972
977
983
989
992
997
998
997
992
992
988
985
984
989
994
997
998
999
1001
1003
1003
1003
1005
1008
1010
1008
1008
1007
1009
1011
1010
1008
1004
1002
999
999
997
995
993
990
987
984
984
993
998
995
990
991
997
999
999
999
1004
1006
1005
1001
997
994
991
991
989
990
991
995
996
998
998
996
992
993
997
999
1003
1002
999
993
992
993
987
984
990
1005
1023
1046
1068
1090
1108
1126
1151
1182
1204
1229
1241
1235
1213
1185
1140
1065
991
945
924
921
927
940
950
952
952
956
962
961
955
953
956
957
956
953
957
965
970
976
976
971
969
972
968
966
966
968
964
960
962
965
967
966
962
962
963
972
974
973
974
976
980
982
979
976
973
971
972
977
980
979
977
979
981
982
979
980
984
984
984
987
984
982
982
982
986
988
985
981
979
979
984
989
989
988
985
988
990
993
992
994
991
996
998
1000
1002
999
996
996
1001
1006
1008
1009
1006
1005
1007
1007
1009
1010
1008
1010
1010
1014
1013
1016
1012
1011
1012
1014
1014
1012
1007
1009
1005
1008
1006
1003
1004
1003
1004
1004
1003
1000
1000
998
999
1002
999
1001
1000
999
998
1001
1000
998
996
995
996
997
1001
1000
1000
1002
1005
1009
1013
1017
1021
1022
1025
1031
1032
1035
1039
1043
1051
1062
1072
1075
1064
1052
1042
1033
1011
967
900
812
734
675
637
619
613
614
619
634
644
653
663
684
715
741
759
770
780
793
813
831
845
857
870
881
900
912
925
928
929
928
932
936
942
954
963
977
994
1011
1022
1024
1032
1039
1047
1054
1056
1058
1063
1068
1074
1082
1083
1085
1084
1083
1085
1086
1089
1093
1097
1101
1104
1108
1111
1113
1113
1116
1120
1124
1128
1130
1126
1130
1136
1140
1143
1144
1144
1146
1146
1151
1154
1154
1156
1155
1157
1158
1159
1157
1152
1154
1153
1152
1147
1143
1138
1135
1133
1133
1128
1121
1114
1109
1104
1105
1101
1096
1092
1085
1082
1079
1071
1065
1058
1053
1049
1046
1043
1039
1035
1033
1029
1028
1025
1020
1015
1015
1013
1013
1012
1008
1005
1001
1002
1000
1000
997
994
995
990
994
993
993
990
987
988
988
989
990
986
987
987
990
989
989
985
984
983
981
978
979
978
977
979
980
979
977
975
972
974
976
978
978
975
974
975
974
972
970
969
967
969
974
974
972
968
968
969
970
968
969
971
972
972
974
972
970
963
963
963
970
970
969
965
962
963
965
964
964
963
963
966
961
961
963
965
962
964
966
967
967
964
961
962
963
962
962
961
959
962
966
967
965
963
961
963
964
963
963
963
961
960
962
962
961
960
961
961
963
963
963
962
963
965
969
965
966
964
965
964
968
967
968
962
964
967
970
972
970
969
964
965
964
967
967
964
962
960
962
963
962
961
960
959
959
961
960
958
957
959
964
968
969
965
963
962
958
958
956
959
956
960
963
962
960
956
955
957
961
963
963
964
959
957
958
955
949
948
953
963
978
989
1004
1018
1034
1055
1074
1093
1113
1131
1152
1171
1180
1175
1155
1127
1096
1053
996
945
912
894
888
893
905
914
920
918
918
922
930
935
934
928
926
925
928
931
929
930
930
936
940
941
939
938
937
940
941
939
939
939
938
941
942
941
941
940
941
940
940
937
940
940
941
941
942
939
938
942
944
945
947
944
946
948
948
947
949
949
948
945
944
945
947
947
946
944
945
950
953
955
953
951
950
949
951
950
951
951
952
953
955
954
952
948
948
953
957
957
957
953
951
952
958
960
964
964
963
964
967
966
968
966
968
972
974
972
970
969
966
966
968
968
966
965
963
965
968
968
969
966
966
968
972
971
967
963
960
962
962
958
955
958
960
963
965
966
965
962
961
961
962
962
963
961
960
964
970
971
973
978
981
983
984
989
996
1002
1005
1008
1007
1005
1006
1005
1004
999
983
956
905
831
750
679
624
593
589
590
591
599
613
631
656
683
705
724
746
767
791
814
829
843
855
860
870
878
883
893
902
910
916
925
935
948
964
976
985
996
1009
1019
1031
1036
1041
1047
1052
1056
1056
1056
1057
1057
1059
1062
1065
1069
1072
1074
1074
1076
1082
1086
1090
1093
1095
1098
1102
1105
1110
1113
1115
1115
1121
1123
1128
1127
1131
1136
1137
1139
1140
1138
1137
1136
1137
1137
1140
1141
1142
1141
1141
1139
1139
1135
1130
1128
1128
1126
1121
1120
1114
1112
1110
1105
1100
1091
1086
1083
1078
1075
1067
1062
1057
1055
1053
1047
1041
1034
1030
1028
1027
1023
1021
1017
1015
1011
1013
1010
1005
1001
999
996
997
994
990
988
987
989
990
990
991
993
992
991
995
994
992
988
985
989
992
992
992
990
987
988
989
988
985
985
982
986
986
987
984
984
983
985
987
985
983
980
980
982
984
983
984
983
983
985
985
981
981
980
977
978
979
978
974
975
976
980
981
979
977
976
975
973
979
980
980
979
979
980
981
977
977
976
977
980
981
980
979
978
976
978
981
981
981
979
979
978
982
979
979
981
979
979
983
982
978
975
974
975
980
980
979
979
977
979
980
981
978
976
975
978
982
985
984
983
982
981
982
982
981
984
984
985
982
982
982
982
979
980
980
981
981
979
980
984
985
984
987
986
984
986
991
994
996
996
993
994
995
992
989
985
981
982
982
980
981
983
982
985
985
982
982
978
978
982
986
986
989
987
985
988
989
988
986
982
977
978
976
976
976
975
976
979
983
983
980
979
981
986
988
987
984
982
979
978
976
976
986
995
1011
1030
1047
1066
1086
1109
1136
1163
1189
1213
1227
1224
1204
1175
1129
1064
996
953
930
921
924
933
946
953
952
952
955
956
958
951
946
948
949
953
955
954
956
960
965
963
961
962
959
959
961
960
959
959
959
959
962
960
958
959
965
966
969
970
971
969
969
969
968
967
969
969
969
970
967
968
969
968
968
969
971
973
972
971
970
972
977
978
978
976
973
973
975
974
974
974
974
973
976
974
972
972
972
972
976
977
975
972
975
977
982
982
981
982
983
986
988
987
988
989
986
988
989
989
990
993
994
995
996
997
996
994
994
997
997
1002
1001
996
996
999
1000
1001
999
994
993
992
997
993
995
993
991
993
994
989
989
988
986
989
993
993
993
990
986
986
989
986
985
983
983
985
984
982
982
981
979
981
984
984
982
982
982
981
982
980
980
981
980
984
984
984
984
985
981
981
984
982
982
983
984
986
989
988
989
987
986
990
994
997
1000
1001
999
997
997
993
987
984
981
988
989
986
986
986
984
985
987
982
979
980
978
978
986
987
986
981
979
984
988
990
989
987
984
985
983
980
979
978
976
977
977
974
975
975
976
977
978
975
976
975
974
975
979
977
977
976
976
972
971
966
966
972
979
991
1005
1022
1037
1053
1064
1082
1103
1121
1139
1155
1166
1167
1157
1139
1116
1094
1056
1012
974
946
927
917
918
928
935
939
942
943
947
953
955
953
950
947
943
944
947
946
946
946
947
952
954
958
957
954
954
953
958
956
954
951
950
953
955
955
955
954
955
955
955
957
958
957
958
959
960
962
962
962
959
959
963
965
972
968
964
965
965
967
967
969
968
974
976
976
973
975
977
981
982
981
982
980
983
985
985
984
984
983
984
989
991
991
989
989
986
989
987
987
987
988
993
995
993
997
998
995
982
969
962
960
965
968
968
959
956
953
957
958
957
964
974
980
984
981
975
973
971
962
951
946
943
942
941
938
942
951
959
968
976
978
971
958
943
934
927
928
934
942
942
941
938
934
930
928
934
946
951
958
958
956
949
944
941
938
934
928
926
927
931
942
957
971
980
977
974
969
969
967
968
975
985
1001
1020
1049
1081
1101
1108
1103
1091
1082
1078
1065
1034
985
927
892
870
848
821
792
757
727
706
694
685
680
682
691
697
701
702
706
712
725
739
749
756
769
791
811
826
836
843
845
856
869
888
907
915
915
910
902
907
915
921
927
935
945
965
984
998
1000
995
993
1000
1018
1034
1037
1031
1017
1004
1003
1017
1027
1035
1041
1048
1054
1057
1065
1065
1067
1065
1068
1070
1074
1076
1082
1089
1092
1094
1096
1103
1112
1120
1124
1123
1120
1132
1141
1145
1134
1119
1107
1100
1101
1108
1116
1117
1120
1123
1124
1125
1123
1121
1119
1112
1106
1103
1099
1100
1100
1093
1087
1082
1082
1084
1077
1066
1056
1048
1043
1044
1044
1046
1048
1050
1046
1039
1027
1014
1003
1000
1004
1009
1010
1009
1007
1009
1011
1010
1005
999
994
990
992
994
996
995
993
992
994
994
995
1001
1001
1004
1003
1004
1003
1007
1004
1002
1003
1002
1002
999
995
996
995
1000
1000
1002
1002
1001
1000
996
1000
998
997
994
995
998
997
996
992
988
989
990
996
997
995
994
992
990
988
987
983
985
988
988
988
988
983
982
984
987
991
991
990
990
988
988
987
986
985
986
985
987
986
985
984
982
983
986
986
987
986
983
987
990
991
992
990
991
990
991
991
992
992
988
989
991
995
998
998
998
997
998
995
994
991
989
989
989
987
988
987
984
987
989
985
983
981
978
978
980
984
990
989
987
986
986
985
980
976
978
977
973
974
975
976
980
980
979
977
977
976
978
980
981
981
980
980
976
971
971
980
994
1012
1029
1048
1068
1085
1107
1129
1154
1175
1190
1188
1173
1149
1121
1081
1030
984
953
936
933
944
952
961
963
957
959
960
961
957
957
952
951
951
955
955
956
958
960
962
966
966
964
959
955
956
959
960
961
961
960
962
960
958
955
954
953
955
959
960
961
958
962
964
965
965
962
963
965
966
971
971
971
970
966
967
969
971
970
968
965
966
969
968
966
969
970
971
974
977
978
977
977
977
979
980
981
983
982
983
984
986
986
986
988
990
991
989
988
987
985
985
985
985
985
980
979
984
986
985
985
985
985
985
985
983
983
979
977
979
980
984
982
979
980
977
976
976
979
978
977
977
979
979
977
974
970
968
967
961
963
967
975
978
979
975
971
964
963
966
970
972
972
971
969
973
977
980
978
978
981
988
993
991
992
994
997
1005
1011
1018
1026
1027
1020
1012
1003
992
968
932
873
804
741
700
673
653
643
645
652
657
664
671
688
714
737
758
773
785
797
817
832
838
847
860
873
884
897
904
906
909
914
916
921
927
936
948
959
971
978
989
996
1007
1016
1025
1030
1029
1030
1031
1036
1041
1043
1047
1049
1050
1054
1057
1068
1070
1076
1078
1078
1083
1083
1084
1086
1089
1095
1100
1102
1103
1105
1104
1105
1109
1111
1113
1115
1115
1119
1121
1125
1124
1126
1127
1127
1126
1123
1118
1115
1116
1116
1112
1105
1101
1097
1097
1092
1089
1084
1078
1074
1073
1066
1057
1054
1051
1045
1037
1030
1032
1028
1028
1025
1017
1012
1012
1010
1010
1004
1001
1000
999
997
995
994
991
990
992
994
995
992
990
989
990
989
991
991
989
987
990
989
987
990
990
987
987
988
993
992
987
985
990
991
991
989
988
990
991
992
988
987
987
990
994
992
992
989
987
986
984
982
981
981
982
984
987
985
987
987
982
980
980
980
982
984
982
982
986
984
983
987
985
984
983
983
981
980
979
981
983
986
984
983
986
987
988
989
989
989
984
986
991
992
986
985
978
977
978
982
985
986
986
987
994
996
997
995
994
999
1008
1012
1015
1018
1017
1008
1000
995
995
989
985
984
986
990
990
988
987
984
981
981
983
988
990
992
992
994
993
990
985
981
978
978
982
981
976
972
974
974
978
981
984
982
983
985
984
979
976
974
974
975
979
989
1002
1016
1038
1060
1081
1103
1125
1151
1178
1198
1210
1212
1202
1188
1154
1095
1018
964
932
919
917
930
944
953
953
950
952
956
955
954
947
946
947
951
952
952
953
957
958
960
958
957
950
951
953
957
959
961
959
956
957
960
961
963
959
957
963
967
972
968
968
968
968
970
973
972
967
967
969
973
975
975
972
969
971
974
977
978
974
974
976
981
980
979
975
973
975
979
982
981
976
972
976
977
975
976
977
977
980
983
986
984
982
985
986
989
988
989
988
990
993
999
995
993
987
990
995
1003
1006
1003
1000
1001
1003
1003
1001
999
998
998
997
997
991
994
994
993
994
991
988
986
986
988
993
993
992
991
988
987
986
985
984
979
976
980
987
993
991
988
988
988
993
999
1006
1011
1013
1022
1035
1046
1056
1072
1082
1090
1094
1091
1071
1042
1006
963
898
812
730
662
616
595
598
604
604
608
617
632
649
668
685
701
721
747
776
798
817
828
843
861
877
889
899
908
913
916
928
937
951
962
975
991
1009
1023
1031
1037
1044
1048
1049
1054
1058
1062
1062
1062
1068
1072
1072
1074
1073
1076
1082
1089
1093
1098
1098
1101
1107
1112
1115
1122
1123
1127
1128
1130
1132
1131
1131
1133
1137
1142
1145
1150
1148
1150
1155
1160
1160
1161
1159
1163
1166
1170
1170
1167
1165
1164
1162
1162
1157
1151
1149
1144
1143
1142
1139
1133
1126
1119
1120
1117
1113
1106
1099
1094
1092
1093
1093
1085
1070
1062
1055
1054
1053
1048
1044
1040
1041
1039
1036
1030
1021
1021
1019
1016
1017
1017
1018
1018
1018
1018
1015
1013
1011
1007
1009
1012
1013
1011
1007
1003
1002
1001
1003
1004
1002
1001
1000
1003
1002
1004
1003
1003
999
995
988
985
990
996
996
993
994
996
994
994
992
995
994
995
993
988
985
985
987
990
989
989
991
990
987
987
988
989
991
991
989
987
985
984
988
987
987
985
984
982
982
982
981
984
984
987
989
991
990
985
982
979
984
987
989
989
983
981
980
985
980
981
981
980
982
984
984
982
980
978
976
977
983
983
982
978
980
982
981
983
978
976
975
977
979
980
979
976
979
981
983
982
983
981
980
982
985
986
985
987
989
987
992
995
997
997
997
996
995
991
992
988
988
990
989
986
985
981
983
985
984
984
979
977
979
982
985
985
983
985
986
988
986
982
979
979
980
975
975
973
973
973
972
972
973
974
971
971
972
969
974
974
977
974
972
975
976
977
979
975
975
972
971
969
969
978
994
1010
1024
1035
1050
1063
1082
1097
1120
1140
1160
1174
1185
1183
1170
1152
1131
1098
1047
997
961
938
922
915
918
928
936
939
938
939
943
951
954
949
943
941
946
947
948
948
947
948
952
954
955
952
950
951
953
955
955
954
951
953
954
954
952
955
953
953
952
954
954
948
950
953
957
960
958
957
952
955
960
961
961
964
963
964
962
963
963
962
960
962
968
969
967
970
965
966
966
968
969
967
964
964
966
966
965
963
962
965
967
966
964
966
967
966
968
971
972
973
972
971
975
979
981
978
977
982
985
982
980
977
972
975
981
987
990
988
983
980
984
985
984
985
980
981
987
986
989
990
988
988
985
982
981
978
975
973
970
972
974
975
976
973
972
978
979
977
971
970
972
975
977
977
974
972
972
972
976
977
979
979
983
986
988
990
988
989
992
993
997
998
1000
1002
1007
1013
1025
1041
1056
1054
1049
1040
1035
1028
1011
975
911
833
764
711
677
658
652
646
650
661
667
671
681
703
732
756
775
785
791
806
825
841
850
860
875
891
902
910
911
917
921
920
921
917
919
925
935
945
956
971
984
998
1016
1027
1035
1039
1037
1038
1043
1047
1050
1055
1056
1057
1062
1066
1069
1067
1065
1067
1071
1077
1084
1085
1092
1098
1106
1112
1116
1114
1112
1109
1106
1109
1114
1121
1127
1129
1127
1123
1124
1126
1125
1123
1126
1130
1133
1135
1138
1138
1142
1144
1143
1142
1141
1138
1139
1142
1146
1152
1153
1143
1135
1123
1113
1106
1106
1100
1099
1098
1095
1096
1092
1089
1086
1084
1085
1088
1087
1082
1079
1069
1059
1045
1035
1023
1023
1029
1037
1043
1040
1036
1039
1036
1024
1011
1007
1004
1001
1000
1002
1009
1013
1021
1024
1028
1021
1013
1009
1007
1006
1000
988
981
982
988
995
1002
1010
1013
1015
1011
1008
1007
1005
1004
1002
1003
1003
1008
1016
1020
1016
1008
1007
1008
1008
1009
1002
997
995
994
991
985
983
984
989
993
996
994
994
993
993
999
1003
1001
997
990
992
1000
1006
1012
1020
1023
1018
1010
1001
997
1000
1002
1006
1003
994
988
987
988
994
998
1005
1004
1001
995
994
994
993
993
994
998
1000
1001
998
1000
1003
1001
998
996
995
1001
1009
1014
1012
1009
1005
999
1002
1004
1005
998
988
983
981
984
993
1000
1008
1008
1007
1008
1016
1020
1018
1008
999
998
1004
1016
1030
1032
1023
1008
1000
996
1002
1007
1007
1006
1010
1015
1011
1006
1007
1013
1021
1026
1022
1017
1014
1008
1006
999
997
1001
1011
1012
1013
1020
1027
1034
1027
1010
996
991
998
1009
1007
996
984
990
1004
1011
1000
986
986
998
1011
1016
1014
1002
995
993
1002
1020
1034
1029
1011
1002
999
997
999
995
995
1000
1006
1013
1019
1024
1025
1023
1035
1043
1058
1078
1114
1150
1183
1207
1215
1226
1247
1268
1263
1231
1179
1102
1028
986
966
957
952
960
984
1000
1011
1021
1017
1008
1001
993
987
971
957
956
977
999
1014
1019
1023
1006
975
945
937
953
976
991
998
1002
999
992
982
975
978
985
992
998
1005
1007
1008
1000
988
982
977
977
982
992
1001
1005
998
986
989
988
984
983
983
991
1007
1018
1015
1000
976
960
954
956
966
979
991
998
996
984
971
967
980
994
997
989
986
993
1007
1013
1021
1018
1016
1010
1010
1015
1023
1022
1009
995
986
993
1023
1046
1028
979
938
927
945
962
979
996
1006
1011
1012
1015
1016
1019
1018
1013
1015
1019
1023
1016
1002
992
998
1020
1034
1029
1008
985
974
979
992
991
982
974
974
980
984
986
982
978
978
980
982
983
981
977
974
977
982
985
987
990
997
1001
1008
1014
1021
1026
1036
1046
1054
1053
1042
1022
1008
1010
1013
1015
1002
978
942
886
815
740
668
609
572
564
567
576
579
587
603
620
638
659
679
700
721
748
772
793
809
822
835
849
863
875
886
898
920
955
989
994
970
946
947
961
977
992
1014
1040
1063
1079
1086
1081
1061
1045
1044
1052
1070
1077
1079
1079
1084
1090
1096
1099
1101
1098
1103
1112
1116
1119
1120
1122
1125
1129
1131
1134
1130
1134
1141
1143
1146
1148
1148
1148
1151
1155
1155
1158
1160
1157
1159
1157
1154
1151
1147
1149
1151
1147
1143
1142
1137
1135
1134
1130
1123
1114
1104
1097
1095
1091
1090
1084
1075
1070
1068
1064
1054
1047
1040
1041
1044
1045
1041
1035
1026
1024
1023
1021
1019
1014
1014
1011
1014
1019
1018
1006
997
994
1002
1011
1010
996
986
977
980
983
984
983
979
980
982
982
981
983
984
984
988
989
989
987
983
976
975
978
979
979
975
976
980
989
1004
1027
1034
1009
967
938
940
959
971
975
975
975
972
968
966
965
969
970
970
966
965
965
968
974
977
986
1003
1027
1053
1062
1032
985
961
976
997
1006
997
980
956
926
892
881
901
933
948
950
950
955
964
967
960
954
956
965
977
983
989
1005
1026
1015
973
930
914
932
955
956
943
933
938
946
955
956
956
968
974
974
973
974
974
979
974
969
969
977
975
966
948
936
943
960
969
969
963
968
983
995
992
979
963
950
944
955
971
981
975
970
971
980
993
1007
1005
984
962
947
940
946
946
954
963
960
952
942
936
935
941
952
955
956
956
954
958
960
961
960
959
961
964
966
968
974
979
982
980
972
961
949
948
956
971
996
1018
1039
1053
1069
1082
1095
1111
1133
1161
1183
1192
1182
1160
1132
1102
1056
999
951
922
913
912
930
957
976
965
926
890
874
886
908
925
936
932
927
924
928
936
943
944
947
950
951
956
956
954
952
954
956
956
955
954
950
950
951
955
954
956
956
956
956
954
957
955
954
957
960
963
964
962
959
959
960
962
963
965
965
969
970
967
963
954
950
949
956
964
967
968
959
954
955
958
958
957
957
955
955
959
963
963
961
963
965
965
964
965
965
968
973
973
975
973
973
978
983
982
984
981
979
982
984
984
984
984
986
987
990
989
989
986
985
981
983
978
977
977
978
979
977
976
974
977
977
978
975
977
978
978
972
974
974
975
978
976
976
978
981
981
979
979
977
981
985
989
988
982
979
980
975
970
966
965
963
964
972
981
985
984
983
985
988
989
989
989
990
994
999
1000
998
994
993
995
999
993
986
989
992
990
983
971
973
981
987
989
986
986
987
989
985
987
991
993
994
994
991
990
989
989
990
989
988
988
989
990
988
988
985
989
986
987
988
989
989
988
988
989
989
985
983
978
982
994
1009
1025
1040
1062
1083
1104
1127
1154
1179
1205
1227
1248
1253
1238
1211
1168
1103
1025
968
940
929
928
937
953
964
972
975
972
971
973
968
966
962
961
962
961
963
964
964
968
973
977
979
981
982
984
986
989
997
994
980
965
957
958
967
973
973
973
976
976
979
980
980
988
995
1001
997
981
969
968
975
982
986
986
989
991
988
989
996
1004
1008
1010
1010
1007
1001
995
996
1007
1023
1047
1074
1078
1052
1009
969
955
961
977
993
1008
1016
1017
1011
1008
1009
1019
1023
1015
1002
992
990
996
1006
1013
1019
1015
1011
1009
1009
1010
1008
1008
1005
1005
1008
1012
1013
1008
1008
1011
1013
1015
1010
995
986
990
1000
1002
999
998
1004
1004
994
980
975
977
981
986
991
991
990
987
987
986
984
983
983
984
984
982
983
982
983
979
977
978
979
977
978
977
980
979
980
979
976
976
976
978
982
983
985
985
984
988
989
990
992
996
998
1003
1009
1014
1017
1017
1022
1040
1058
1075
1087
1101
1109
1097
1048
972
902
861
843
821
792
767
744
722
699
685
674
664
655
643
634
629
626
625
627
633
637
641
653
673
702
720
740
763
789
809
828
843
859
879
894
909
915
920
924
933
946
955
967
982
1001
1019
1036
1055
1071
1083
1084
1093
1099
1105
1112
1112
1112
1117
1124
1130
1133
1134
1137
1139
1144
1147
1150
1151
1151
1157
1161
1164
1167
1169
1170
1175
1182
1185
1184
1181
1185
1192
1198
1200
1199
1197
1195
1199
1198
1198
1198
1195
1191
1189
1188
1184
1180
1178
1172
1171
1167
1164
1161
1155
1146
1140
1139
1134
1130
1120
1114
1109
1107
1102
1094
1089
1083
1079
1076
1072
1067
1063
1059
1057
1056
1055
1050
1047
1041
1041
1040
1036
1033
1029
1030
1031
1028
1019
1012
1005
1007
1010
1012
1009
1007
1006
1005
1006
1006
1008
1007
1003
1000
1002
1003
1005
1002
1001
1003
1011
1021
1024
1020
1015
1009
1011
1015
1006
993
983
981
988
989
984
981
979
977
973
972
975
978
979
980
979
980
982
979
979
978
980
982
990
994
999
994
994
996
1006
1017
1024
1017
1001
983
971
973
984
994
993
978
960
944
934
934
945
960
965
967
968
967
967
972
974
974
975
977
977
976
982
988
989
983
981
977
975
980
989
999
1001
982
964
946
940
946
956
970
979
982
977
968
965
969
980
985
979
963
953
954
960
961
965
966
974
978
984
987
983
973
964
960
960
963
963
960
957
957
958
959
959
954
959
962
961
966
969
967
959
950
950
961
985
1004
1018
1030
1043
1063
1086
1114
1143
1170
1190
1197
1183
1159
1134
1107
1064
1020
979
948
914
887
880
890
907
920
925
929
931
935
943
945
945
941
939
935
930
921
920
927
937
941
940
935
934
936
939
941
942
939
940
944
945
944
945
948
953
957
955
945
939
939
942
945
946
942
939
936
933
936
938
942
944
943
946
949
951
951
955
958
958
953
957
957
957
950
945
943
947
948
949
949
951
954
954
956
956
955
958
961
963
965
965
968
966
968
969
970
970
975
975
978
980
976
968
955
952
955
966
971
968
966
968
968
972
971
970
966
965
962
963
967
966
964
967
970
971
969
967
967
972
972
972
976
977
979
988
989
983
974
962
945
940
938
942
952
959
961
962
959
962
971
976
987
1002
1016
1030
1051
1069
1086
1104
1122
1140
1158
1177
1197
1214
1235
1260
1282
1302
1323
1347
1372
1375
1359
1341
1330
1326
1305
1259
1182
1093
1014
954
918
906
907
909
910
910
910
909
907
906
902
901
905
913
925
920
906
888
882
883
885
882
882
885
886
886
887
887
888
882
879
875
866
863
865
872
880
888
887
878
858
843
844
857
867
868
864
861
864
867
872
873
867
865
866
868
875
876
872
871
870
873
878
883
881
881
886
896
907
914
915
910
899
885
875
880
891
900
906
914
922
926
929
931
934
942
946
945
946
950
954
955
957
958
958
960
962
961
964
963
964
965
966
971
970
971
970
973
980
987
986
986
984
990
996
998
989
969
947
944
957
963
957
951
954
967
974
973
971
971
974
980
985
988
989
991
990
994
996
996
993
995
1000
1011
1018
1015
990
960
938
942
956
974
982
982
978
979
980
983
985
986
984
986
991
991
990
984
982
987
990
990
987
987
989
994
997
998
997
997
1001
1005
1010
1014
1011
1003
994
995
1000
1005
1008
1006
1001
993
980
972
966
966
980
988
993
995
994
990
986
987
992
998
999
999
997
996
997
998
998
997
996
998
1000
1002
1003
1004
1008
1011
1012
1012
1008
998
989
995
1003
1015
1018
1019
1018
1015
1008
999
1000
1003
1004
1005
1008
1005
1003
997
994
997
1000
1004
1007
1006
1005
1005
1006
1006
1006
1004
1008
1012
1015
1014
1010
1004
1003
1005
1009
1014
1012
1010
1005
1008
1014
1014
1010
1002
995
996
992
988
991
995
998
1001
1001
1001
995
993
998
1013
1029
1052
1072
1092
1111
1133
1158
1191
1226
1256
1276
1280
1273
1255
1222
1161
1076
1003
964
951
949
950
956
967
977
985
987
988
985
984
983
980
977
978
979
981
982
985
990
989
976
964
963
967
970
972
975
976
982
983
983
982
983
985
986
988
990
991
991
989
989
991
995
996
993
987
982
987
991
999
996
994
998
999
1002
1001
997
997
1007
1015
1015
1004
988
980
982
991
999
1002
1002
1006
1005
1007
1001
997
995
999
1007
1013
1014
1012
1008
1009
1010
1013
1017
1017
1015
1017
1023
1025
1023
1023
1021
1027
1037
1041
1031
1010
997
1003
1011
1017
1017
1015
1011
1014
1021
1018
1017
1015
1013
1014
1011
1012
1013
1012
1009
1009
1010
1014
1014
1010
1009
1010
1012
1015
1020
1021
1015
1011
1011
1007
1004
1001
998
1003
1005
1004
998
992
989
993
1001
1008
1013
1013
1015
1020
1033
1050
1068
1069
1053
1034
1027
1038
1048
1054
1059
1060
1056
1051
1043
1028
1002
960
896
813
730
663
627
613
609
610
618
625
633
643
663
691
719
741
755
770
786
802
819
831
841
855
875
896
913
918
916
915
924
936
952
958
960
967
975
992
1003
1017
1033
1044
1050
1050
1056
1063
1066
1069
1073
1079
1083
1088
1091
1092
1096
1098
1101
1106
1110
1117
1122
1126
1122
1118
1117
1116
1120
1130
1135
1138
1142
1146
1149
1146
1143
1141
1143
1149
1155
1160
1161
1162
1160
1161
1164
1164
1164
1165
1165
1166
1165
1163
1158
1154
1148
1150
1149
1141
1127
1118
1116
1117
1120
1119
1114
1110
1102
1095
1090
1087
1082
1080
1072
1067
1062
1058
1054
1053
1048
1047
1046
1043
1037
1033
1029
1024
1019
1017
1018
1015
1015
1014
1011
1011
1006
999
993
995
997
999
1000
1000
1002
1008
1008
1003
994
994
995
997
995
994
992
987
986
986
987
988
986
984
981
983
986
989
994
993
991
989
991
992
990
987
985
984
986
989
991
990
985
984
980
983
984
983
981
979
978
980
978
979
979
981
980
981
983
981
976
977
977
980
983
983
984
987
987
982
971
962
957
964
969
975
973
968
967
968
972
974
971
972
973
973
975
976
978
974
970
971
974
975
975
976
975
973
971
975
976
972
967
967
970
970
971
970
967
967
969
974
974
974
972
972
972
973
973
970
972
975
976
971
971
970
972
976
980
980
980
979
977
977
977
978
978
975
976
975
975
973
970
964
963
963
967
967
965
965
966
972
975
976
978
975
973
972
969
965
965
963
961
962
964
964
966
965
964
966
968
968
966
960
959
959
963
963
964
962
961
962
963
962
961
957
954
956
959
967
976
984
994
1011
1030
1051
1063
1078
1093
1112
1134
1158
1176
1191
1195
1188
1173
1153
1129
1089
1031
977
939
913
897
888
890
897
908
914
915
912
917
925
931
933
930
927
922
925
924
926
923
924
924
931
940
944
942
937
930
930
934
940
941
941
940
939
940
940
938
938
937
939
941
942
941
941
942
941
940
942
941
940
941
942
946
950
948
949
946
945
945
948
951
955
956
956
960
961
958
951
947
944
947
949
948
949
946
948
952
952
955
951
950
950
953
953
953
953
952
955
953
953
949
950
951
956
955
953
951
948
951
956
962
965
969
967
966
966
967
970
976
977
974
973
973
972
971
970
967
968
968
970
975
975
975
969
965
963
966
967
968
967
966
966
972
968
966
968
968
968
968
965
962
960
960
960
961
957
956
956
960
962
960
958
956
956
962
963
960
959
960
961
964
966
965
965
956
957
956
960
961
964
969
972
978
989
996
1003
1004
1000
993
985
982
985
993
1010
1030
1048
1050
1048
1039
1037
1030
1007
960
886
801
728
679
652
634
622
623
629
637
648
664
687
711
733
749
762
774
785
799
815
827
836
848
860
871
884
893
898
904
911
917
922
931
945
960
972
983
995
1003
1015
1025
1029
1030
1032
1030
1033
1038
1043
1045
1048
1051
1055
1060
1065
1066
1070
1075
1079
1084
1087
1088
1092
1097
1103
1103
1106
1110
1117
1122
1124
1124
1129
1134
1138
1139
1137
1136
1134
1135
1140
1140
1140
1140
1144
1144
1144
1143
1143
1143
1140
1138
1136
1131
1130
1130
1126
1122
1116
1111
1107
1101
1091
1078
1073
1073
1073
1074
1066
1061
1057
1053
1046
1041
1037
1035
1032
1026
1020
1018
1018
1014
1008
1006
1009
1013
1008
1001
1003
1002
1001
1002
1002
1003
1003
1003
1003
1003
999
998
1000
1003
1005
1007
1001
991
986
989
994
999
998
997
993
994
996
995
994
994
995
993
993
993
993
993
993
992
992
992
989
987
988
990
992
994
989
991
992
996
995
996
993
990
987
989
992
992
994
992
986
987
989
993
993
993
991
986
984
990
995
996
993
991
994
997
997
992
992
989
994
998
999
993
989
986
985
988
991
991
993
992
993
995
996
994
990
989
988
988
990
992
991
991
991
992
991
987
985
989
996
1001
1003
1003
1004
1003
1004
1004
1006
1003
1003
1002
1005
1009
1012
1010
1010
1008
1007
1000
999
993
994
997
1000
1000
997
996
997
994
995
994
993
986
989
992
998
1001
999
1003
1006
1005
1003
1000
996
992
992
992
996
995
995
993
991
994
995
993
992
990
990
991
992
994
992
994
994
992
994
994
997
1001
1012
1026
1038
1055
1071
1097
1120
1146
1172
1203
1228
1248
1259
1255
1239
1216
1169
1091
1019
976
958
950
942
946
956
966
971
968
970
970
971
968
968
963
960
953
955
961
963
968
969
968
969
971
974
976
975
972
970
970
973
974
974
974
970
971
973
974
973
974
974
975
977
977
979
977
974
975
977
981
979
976
975
977
981
981
979
975
975
977
978
979
982
982
984
985
987
989
989
988
989
989
991
993
990
985
982
984
986
987
988
986
987
990
992
996
996
996
1001
1004
1006
1002
1003
1002
1003
1004
1007
1008
1008
1005
1007
1008
1010
1011
1007
1005
1006
1006
1007
1008
1008
1004
1001
999
1002
1001
998
993
996
994
1000
999
995
989
988
988
991
992
991
987
988
989
987
987
987
992
1002
1006
1011
1016
1020
1022
1025
1030
1029
1029
1028
1020
1009
989
952
876
769
668
600
572
576
583
589
599
618
643
669
691
714
740
770
799
821
835
846
857
871
884
896
908
917
929
946
962
979
996
1010
1025
1035
1040
1048
1053
1059
1064
1070
1074
1080
1083
1087
1085
1086
1092
1097
1103
1104
1105
1105
1107
1111
1117
1118
1119
1120
1125
1133
1139
1138
1136
1138
1142
1146
1150
1150
1147
1147
1155
1159
1158
1158
1154
1154
1153
1157
1156
1155
1150
1150
1147
1146
1143
1140
1137
1136
1132
1130
1130
1132
1135
1137
1142
1144
1129
1094
1046
1009
997
1008
1026
1038
1037
1030
1023
1017
1015
1014
1013
1013
1013
1011
1006
1001
998
998
999
999
997
994
992
992
993
999
996
991
991
994
996
994
994
989
986
986
989
991
993
994
996
1007
1016
1013
996
976
966
974
987
989
979
968
966
977
982
981
975
964
957
957
963
969
968
968
969
968
972
973
969
970
972
974
975
975
980
988
991
984
969
965
981
997
982
949
928
939
963
973
968
960
959
960
970
977
971
959
949
947
959
973
977
980
976
971
959
964
983
992
978
965
969
979
976
963
948
942
955
976
995
1003
1002
995
977
960
953
963
972
976
981
978
967
956
960
977
990
989
976
977
983
982
974
965
955
951
955
957
959
962
955
938
918
914
927
944
952
955
955
958
961
964
963
968
978
989
988
973
954
940
951
981
1013
1037
1057
1079
1102
1131
1163
1191
1206
1198
1172
1140
1092
1019
951
914
906
908
918
922
925
931
941
951
963
966
951
931
920
927
935
930
923
920
922
929
936
941
941
945
946
944
943
945
945
946
944
943
947
951
951
949
950
953
951
946
940
939
944
952
956
957
955
957
955
949
944
940
937
939
946
954
957
952
947
948
952
962
963
962
955
956
956
959
961
955
954
956
960
963
962
961
960
960
960
962
964
964
962
966
970
977
979
978
982
986
989
986
978
972
966
976
982
986
985
985
981
983
983
987
988
988
986
988
989
992
993
992
988
985
988
990
988
988
985
983
986
987
987
983
981
979
982
983
984
983
978
980
979
982
986
991
991
992
997
1002
1000
991
974
965
968
979
990
993
993
997
999
1006
1008
1011
1015
1018
1026
1035
1046
1057
1068
1077
1077
1072
1064
1053
1023
964
880
792
717
664
633
622
620
629
638
646
651
665
689
721
750
774
786
799
818
843
868
891
909
911
907
897
892
904
918
929
934
938
941
948
958
974
994
1013
1029
1041
1048
1055
1060
1065
1067
1066
1064
1067
1070
1075
1078
1079
1080
1084
1092
1097
1106
1110
1113
1118
1122
1129
1138
1153
1166
1166
1150
1131
1121
1122
1135
1147
1151
1146
1140
1141
1151
1160
1162
1163
1161
1163
1163
1162
1163
1160
1158
1151
1146
1141
1135
1132
1130
1127
1124
1124
1123
1121
1110
1101
1086
1066
1048
1039
1041
1048
1046
1044
1041
1037
1034
1030
1030
1032
1032
1028
1028
1020
1017
1021
1024
1024
1027
1027
1022
1015
1017
1017
1021
1019
1014
1016
1017
1019
1012
1000
988
982
986
996
999
1002
1001
1007
1009
1009
1007
1007
1006
1004
1008
1013
1014
1010
1007
1000
999
1002
1007
1011
1004
990
989
1009
1029
1036
1028
1014
997
986
980
985
996
1003
1005
997
983
972
970
979
989
996
998
998
998
998
998
999
1000
1002
1009
1018
1026
1020
1001
988
990
1009
1022
1015
998
992
996
992
980
972
978
986
993
996
997
997
993
986
985
989
993
999
997
995
992
993
996
999
999
997
994
997
1004
1003
1001
1002
1002
1006
1010
1010
1012
1011
1014
1024
1035
1042
1045
1034
1018
1002
988
987
996
1004
1005
998
986
983
985
989
994
995
996
1000
1003
1008
1017
1025
1034
1033
1020
996
977
970
977
987
989
988
987
988
994
999
998
999
997
995
995
998
1003
1002
1002
998
1000
1003
1010
1008
1003
1006
1019
1038
1044
1054
1068
1087
1112
1134
1160
1188
1216
1242
1256
1252
1233
1209
1176
1124
1067
1023
994
969
951
945
957
977
1005
1031
1028
996
946
927
950
991
1006
986
946
918
916
931
947
956
957
962
964
962
952
948
949
954
960
964
964
965
967
965
968
967
971
969
970
970
970
973
975
981
985
983
986
987
987
982
975
971
973
974
972
969
964
957
955
959
965
973
975
977
976
977
974
977
982
986
984
980
978
978
978
981
980
981
980
981
982
983
986
985
987
993
1005
1013
1007
995
985
988
998
1010
1017
1014
1010
1006
998
980
963
958
972
987
995
997
995
993
993
992
993
996
999
1001
1000
1000
1000
998
996
992
988
989
992
990
989
985
985
984
986
983
982
983
984
990
991
993
996
999
998
986
974
967
972
980
992
997
996
989
982
980
978
982
989
1004
1010
1009
1004
1005
1002
999
994
988
984
977
960
930
881
810
733
664
611
584
579
582
586
593
604
620
639
656
677
697
719
741
763
789
812
829
840
851
853
855
864
880
898
911
918
922
926
934
943
959
974
983
992
1002
1017
1034
1046
1047
1040
1040
1047
1057
1070
1070
1071
1072
1076
1080
1083
1083
1083
1087
1091
1097
1100
1103
1102
1104
1104
1111
1120
1128
1130
1130
1127
1125
1122
1127
1127
1132
1136
1140
1142
1143
1143
1148
1151
1152
1148
1149
1153
1161
1167
1169
1165
1154
1145
1143
1145
1145
1141
1131
1121
1119
1121
1129
1125
1120
1113
1109
1104
1103
1099
1093
1082
1076
1073
1074
1073
1068
1063
1058
1054
1052
1048
1046
1041
1034
1029
1026
1024
1023
1019
1013
1009
1001
1003
1005
1005
1006
1010
1021
1021
1017
1003
996
993
990
986
979
974
972
973
979
982
983
981
984
986
986
983
981
981
981
983
986
986
983
979
978
978
980
980
979
976
977
981
992
990
985
978
976
978
980
980
976
970
967
972
974
971
970
969
969
972
970
971
970
970
973
975
977
974
970
967
969
970
971
974
975
975
974
974
975
971
970
967
967
968
968
967
968
964
967
966
968
967
971
970
972
976
978
979
975
969
967
968
969
968
965
962
964
967
968
969
967
965
967
965
966
963
963
964
969
972
972
972
970
970
973
978
981
981
977
971
969
970
975
975
971
968
970
975
979
982
976
977
975
979
981
979
976
968
968
965
970
971
974
973
974
975
976
978
975
973
972
975
975
979
980
982
987
986
987
984
978
969
965
964
965
967
963
961
961
963
967
968
971
969
968
966
968
968
969
968
970
970
963
965
964
968
975
991
1005
1018
1034
1054
1073
1092
1114
1138
1164
1186
1210
1222
1218
1201
1173
1136
1078
1005
952
920
905
903
909
922
930
932
931
932
933
932
934
933
935
934
935
940
942
944
946
947
951
953
954
954
953
954
956
959
960
959
960
958
955
956
957
954
953
952
955
957
959
957
959
959
961
963
964
965
964
964
967
970
972
973
971
974
974
972
972
971
973
972
970
966
964
963
963
964
966
966
965
964
964
966
968
969
972
969
969
966
966
964
966
967
969
971
975
976
980
980
978
979
980
982
986
988
992
991
993
994
997
996
995
987
985
984
991
995
996
999
999
994
993
993
990
988
986
984
987
991
992
991
993
997
997
992
989
987
989
988
990
992
991
988
982
984
987
989
991
989
987
985
990
992
995
994
993
992
986
983
975
973
979
984
984
983
986
987
992
994
989
983
980
980
986
986
988
991
993
992
993
1000
1002
1006
1007
1009
1007
1006
1002
1000
1000
997
993
990
990
993
992
990
990
994
997
999
1000
997
994
990
992
997
1001
999
1000
1005
1013
1018
1017
1015
1007
1006
1003
1001
1002
1008
1005
1001
993
988
985
984
983
983
983
987
992
998
1005
1012
1011
1002
992
983
983
983
988
990
995
1008
1025
1039
1052
1062
1073
1090
1112
1141
1170
1195
1217
1241
1270
1290
1281
1251
1209
1156
1088
1023
981
961
954
955
967
979
982
975
962
957
964
976
981
978
973
976
977
970
960
958
963
964
966
971
975
977
978
977
979
981
982
986
989
986
980
977
980
982
984
986
988
989
993
998
1003
1009
1009
999
985
976
975
982
989
991
994
1001
1008
1010
1005
999
997
997
1001
1006
1008
1010
1013
1015
1021
1017
1010
1002
1003
1011
1014
1014
1012
1013
1021
1025
1027
1024
1019
1018
1030
1041
1043
1033
1020
1018
1020
1027
1029
1029
1027
1026
1024
1024
1024
1023
1025
1028
1028
1022
1013
1004
1004
1010
1014
1014
1003
1004
1005
1006
1007
1009
1007
1002
1004
1007
1011
1010
1015
1013
1016
1017
1014
1008
1001
995
990
990
995
1001
1001
992
984
982
981
980
980
981
986
990
990
991
988
986
987
991
994
996
997
994
994
999
1003
1003
1003
1004
1002
1000
1004
1006
1000
995
995
999
1001
1002
998
995
995
1002
1009
1008
1002
996
994
996
1000
999
998
1001
1008
1018
1022
1013
997
987
984
987
992
994
996
996
996
999
1001
999
998
998
1000
1005
1004
996
992
993
996
999
1001
994
993
989
990
998
1017
1038
1055
1074
1095
1115
1132
1153
1182
1214
1242
1258
1255
1235
1204
1163
1099
1030
986
961
952
948
955
966
976
980
977
977
975
974
969
962
955
958
958
960
965
973
975
972
971
969
972
972
972
971
972
970
973
976
974
973
973
980
986
986
974
965
966
972
974
973
973
972
971
973
981
989
991
990
986
982
982
986
987
987
984
984
987
991
994
994
993
997
1001
1000
1002
999
1003
1007
1009
1009
1007
1004
1005
1011
1014
1016
1019
1019
1015
1013
1015
1015
1014
1010
1010
1011
1014
1013
1006
1005
1007
1007
1008
1008
1003
999
995
993
998
1003
999
994
986
985
990
993
996
995
991
988
989
991
995
993
986
975
979
982
985
979
978
976
982
980
979
974
974
973
974
972
969
965
962
964
965
970
974
972
971
967
965
964
964
964
963
966
972
972
967
964
960
963
968
973
980
984
978
973
968
969
969
971
971
972
976
976
979
975
973
971
971
971
969
969
969
969
972
975
974
972
974
979
978
972
971
970
975
976
975
978
975
972
970
971
972
973
971
969
972
976
978
975
966
959
961
964
969
972
971
969
972
975
979
976
973
967
964
963
968
978
997
1013
1035
1052
1073
1089
1109
1128
1150
1178
1203
1210
1196
1174
1146
1109
1058
996
945
918
909
908
913
922
931
936
936
941
948
949
946
939
936
937
946
947
950
950
953
952
954
953
953
956
955
955
956
954
955
955
954
951
952
951
952
948
948
951
954
958
960
957
956
956
960
962
961
960
961
962
964
969
972
976
977
971
969
967
973
980
981
975
972
972
978
978
978
978
981
982
976
969
967
970
978
986
995
1005
1011
1012
1014
1014
1011
1011
1011
1013
1012
1007
1005
1002
1003
1009
1012
1008
1005
1003
1000
998
997
993
989
987
985
988
985
983
975
974
972
973
972
968
972
979
982
985
989
988
986
984
980
982
984
983
981
973
973
975
979
981
978
976
974
975
977
973
968
966
967
969
967
967
972
976
977
980
978
979
977
975
975
972
976
976
972
962
961
968
976
980
980
978
974
976
979
978
973
969
967
969
970
968
967
968
968
968
972
973
975
974
973
972
971
972
972
970
972
971
972
973
975
972
973
973
974
973
975
977
977
973
972
976
980
990
1002
1017
1039
1057
1078
1098
1116
1138
1159
1183
1205
1220
1236
1243
1240
1226
1192
1133
1052
984
947
928
916
909
913
927
944
954
956
956
954
958
957
954
950
948
952
958
963
966
964
962
965
965
970
974
972
967
964
966
969
975
973
970
967
971
969
970
967
971
971
975
978
976
975
972
971
970
970
974
976
979
978
976
971
972
975
982
990
995
994
991
988
987
992
996
997
997
999
1003
1005
1006
1000
1001
1002
1004
1009
1013
1019
1019
1019
1021
1020
1022
1023
1024
1023
1025
1026
1026
1027
1026
1024
1020
1018
1023
1026
1022
1017
1014
1014
1015
1015
1015
1015
1014
1015
1016
1017
1016
1014
1008
1010
1013
1017
1016
1015
1014
1011
1008
1008
1007
1011
1008
1002
1002
1006
1005
1004
1000
997
995
994
990
992
991
996
993
994
994
993
996
995
994
995
995
999
996
996
996
998
993
992
993
998
997
999
998
998
998
991
991
994
997
997
1001
1001
1002
1006
1005
1001
998
996
994
995
995
994
997
999
1002
1004
1005
1006
1006
1007
1014
1019
1022
1020
1021
1019
1017
1012
1012
1015
1016
1016
1019
1018
1013
1008
1009
1016
1024
1025
1025
1018
1012
1011
1009
1006
1007
1008
1006
1005
1005
1006
1006
1002
1001
1004
1009
1011
1007
1007
1005
1008
1009
1010
1006
1005
999
995
996
1003
1005
1021
1037
1057
1078
1103
1121
1141
1163
1192
1226
1257
1272
1268
1247
1218
1175
1109
1036
989
964
964
970
979
988
994
996
992
986
984
982
976
975
974
969
970
965
962
971
979
981
979
979
983
989
992
994
993
992
992
992
991
989
991
993
995
992
991
992
995
990
991
991
991
992
993
994
996
995
995
993
996
999
1000
997
999
1002
1002
1003
1005
1004
1006
1006
1008
1009
1007
1005
1011
1013
1018
1021
1020
1020
1019
1018
1019
1023
1026
1028
1027
1026
1033
1035
1033
1029
1027
1027
1029
1028
1031
1031
1030
1029
1029
1026
1027
1023
1021
1021
1025
1023
1020
1023
1023
1023
1020
1016
1012
1010
1010
1010
1013
1012
1010
1008
1008
1007
1007
1005
1003
1003
1004
1003
1000
995
995
998
1002
1002
1001
1003
1006
1009
1008
1007
1004
1000
999
997
994
990
989
986
986
986
988
989
989
987
987
981
983
981
985
986
984
980
979
982
986
985
979
973
975
979
984
980
979
980
985
988
991
991
993
997
998
996
992
993
995
996
998
1002
1003
998
994
992
992
991
990
989
990
989
988
990
992
993
994
993
991
988
989
986
988
988
989
990
991
992
996
992
990
986
986
989
992
990
988
990
993
994
993
993
991
993
993
990
989
988
988
990
991
989
984
979
979
991
1012
1029
1045
1065
1086
1108
1132
1160
1190
1208
1218
1214
1198
1169
1126
1062
997
955
934
930
932
941
950
956
968
977
979
971
966
961
961
957
954
950
954
960
968
970
967
964
961
964
967
970
971
968
965
967
970
970
968
965
962
963
965
962
958
964
970
975
974
972
970
971
975
981
983
982
985
986
987
989
988
988
988
986
985
992
999
999
994
990
992
996
1004
1011
1016
1014
1012
1008
1008
1006
1009
1009
1009
1009
1007
1008
1007
1004
1002
1005
1007
1008
1003
998
993
991
993
994
997
993
989
987
990
991
990
986
985
986
990
988
989
987
985
986
987
982
974
973
980
988
991
984
982
979
978
979
978
979
978
976
976
975
979
978
974
968
965
966
969
978
978
971
972
974
974
978
981
981
978
976
980
979
982
982
981
981
983
984
981
984
982
986
990
988
989
986
985
986
994
992
992
986
983
987
997
998
997
992
991
989
990
985
984
985
983
982
983
984
986
984
983
983
988
992
996
994
996
993
994
992
988
984
982
982
984
985
982
979
975
977
984
989
990
990
988
987
987
987
985
989
991
992
993
989
986
987
996
1010
1031
1054
1071
1091
1107
1125
1148
1177
1206
1230
1252
1257
1249
1230
1192
1118
1032
970
947
935
930
930
941
950
957
957
960
963
964
966
964
959
957
954
956
958
964
968
973
976
976
981
984
982
981
977
977
977
980
979
978
978
976
976
979
980
981
978
975
976
982
985
986
981
978
984
990
991
991
991
989
990
996
997
998
995
996
1000
1001
1003
1001
996
999
1005
1012
1011
1014
1012
1011
1011
1015
1015
1013
1016
1017
1025
1027
1029
1027
1025
1025
1027
1026
1025
1024
1017
1019
1023
1028
1029
1028
1027
1026
1025
1024
1019
1017
1016
1015
1013
1012
1012
1012
1010
1006
1008
1009
1006
1003
1001
1004
1011
1011
1011
1006
1012
1013
1009
1009
1007
1006
1004
1000
1004
1006
1004
1001
1001
1001
1006
1007
1002
1000
994
992
996
997
995
988
984
988
994
999
996
995
990
989
985
988
991
995
998
999
1000
1007
1014
1015
1012
1011
1011
1015
1016
1017
1016
1014
1011
1011
1004
1003
1001
1002
1004
1007
1005
1004
1001
1004
1006
1010
1007
1005
1005
1006
1008
1015
1017
1012
1009
1008
1010
1014
1011
1010
1004
1002
999
1000
999
1000
1000
999
1002
1004
1003
999
996
995
999
1007
1010
1009
1010
1008
1007
1007
1004
1002
999
999
1005
1017
1032
1046
1059
1077
1095
1115
1129
1147
1169
1195
1222
1248
1266
1273
1264
1248
1220
1173
1106
1039
1000
981
966
958
960
966
974
988
992
995
994
989
987
983
980
981
980
979
978
975
977
978
981
985
985
985
988
986
985
984
982
981
983
983
985
986
985
983
985
990
994
997
994
992
990
991
991
991
988
989
991
993
992
993
993
998
998
998
998
999
1001
1003
1003
1006
1008
1009
1008
1011
1014
1014
1013
1011
1012
1016
1015
1019
1017
1016
1017
1018
1019
1024
1023
1024
1024
1023
1027
1030
1029
1030
1028
1028
1028
1032
1035
1036
1032
1029
1031
1033
1034
1032
1031
1029
1028
1031
1030
1026
1025
1022
1020
1019
1018
1019
1020
1022
1024
1021
1020
1018
1016
1015
1016
1017
1014
1014
1012
1010
1011
1012
1010
1009
1008
1006
1007
1008
1008
1008
1008
1007
1006
1007
1001
1002
1001
1001
1002
1003
1001
999
1000
999
1000
996
995
994
994
995
994
995
994
993
991
993
995
994
992
990
989
990
992
996
998
996
997
996
1000
1003
1001
1001
1003
1003
1007
1011
1009
1012
1011
1006
1008
1007
1003
1000
999
998
998
1001
1001
997
997
996
999
1001
1001
1000
998
1001
1001
1001
1002
1002
1000
994
992
993
994
990
988
990
988
991
990
990
989
990
992
997
1000
1000
996
994
995
998
997
996
994
996
1010
1024
1044
1065
1086
1104
1123
1145
1171
1196
1216
1223
1216
1199
1177
1146
1095
1038
992
969
952
951
952
958
964
971
972
971
972
969
966
963
962
961
955
954
960
965
971
973
972
975
974
976
976
976
975
972
969
970
970
971
974
975
977
977
978
978
973
974
977
979
978
979
975
976
978
981
984
982
982
981
984
986
983
984
983
985
987
990
990
992
990
990
991
993
995
998
1000
998
997
997
994
997
1001
1006
1005
1005
1003
1006
1009
1010
1012
1013
1013
1012
1009
1008
1010
1012
1012
1015
1016
1014
1014
1017
1020
1020
1018
1016
1013
1011
1006
1004
1001
998
999
998
998
996
995
994
994
994
993
991
987
985
989
991
992
992
992
989
988
989
992
990
987
984
987
989
988
987
985
985
987
990
989
988
988
988
990
991
990
989
988
986
993
997
997
991
986
984
984
986
982
983
982
980
977
975
971
970
974
979
979
974
967
962
962
965
966
973
971
973
972
975
977
977
971
971
967
968
971
972
971
973
972
973
976
975
976
975
970
975
980
985
981
979
979
977
976
977
973
973
981
988
1002
1018
1034
1056
1076
1091
1108
1131
1153
1173
1194
1213
1217
1208
1182
1153
1107
1044
989
954
928
913
905
910
923
935
938
941
943
949
952
954
947
940
935
937
940
948
952
957
960
964
966
970
970
966
967
964
964
968
965
963
963
965
968
969
968
967
965
964
966
969
970
968
966
965
968
971
977
978
976
976
977
975
976
982
982
978
981
982
981
987
990
990
995
1002
1006
1006
1003
1004
1008
1013
1011
1015
1015
1018
1027
1044
1063
1070
1056
1022
992
984
992
1005
1006
1007
1009
1010
1011
1010
1010
1010
1011
1015
1011
1007
1005
1002
1000
998
998
999
996
995
995
994
990
991
993
994
998
1000
1002
1002
999
997
997
997
995
993
993
989
987
991
991
992
990
991
991
995
992
992
990
989
989
989
989
989
987
986
987
989
986
986
986
983
984
986
985
984
977
978
981
988
990
992
991
987
987
991
993
996
1003
1003
1001
995
989
992
996
1002
999
991
981
974
973
978
981
988
989
988
988
991
992
997
992
994
990
992
994
994
995
995
994
993
994
994
997
1001
999
999
1004
1010
1010
1012
1011
1015
1017
1019
1014
1010
1004
1003
1008
1008
1009
1009
1012
1012
1012
1016
1013
1010
1004
1000
998
999
1000
1001
1000
996
995
995
993
993
993
992
992
995
997
997
997
1000
1001
1003
1005
1004
999
997
993
993
989
987
982
981
989
1002
1020
1039
1057
1076
1095
1113
1130
1147
1168
1192
1218
1244
1259
1264
1251
1229
1198
1148
1076
1017
978
960
953
956
965
977
985
992
992
993
992
988
976
965
961
963
966
970
967
962
963
965
964
961
961
958
963
970
974
974
976
978
978
977
972
969
970
971
974
979
978
976
977
976
978
981
980
981
981
981
981
983
982
985
989
991
988
986
986
988
986
986
991
1003
1007
1006
1001
1001
1001
1003
998
993
991
992
999
1000
1001
999
999
998
1003
1008
1008
1010
1010
1011
1015
1021
1025
1031
1031
1033
1035
1034
1029
1024
1020
1014
1013
1015
1022
1025
1026
1024
1024
1017
1008
1002
1002
1003
1005
1007
1007
1008
1005
1007
1008
1012
1009
1005
1001
999
999
1004
1008
1007
1003
998
998
999
998
997
998
998
998
999
1000
998
999
996
998
998
996
995
994
991
993
993
992
986
985
984
985
986
986
988
988
988
988
990
987
981
979
987
994
996
992
992
993
995
998
998
995
1000
1007
1008
1010
1016
1022
1031
1034
1029
1025
1033
1044
1056
1063
1064
1066
1067
1060
1052
1042
1020
976
902
809
717
647
610
599
600
602
607
617
638
678
716
734
736
740
755
783
807
822
833
838
850
865
882
893
904
911
918
924
932
941
956
972
988
1006
1023
1034
1039
1043
1047
1049
1049
1052
1055
1057
1063
1066
1066
1064
1064
1069
1077
1084
1084
1084
1085
1091
1100
1111
1120
1121
1121
1114
1114
1115
1124
1128
1132
1133
1134
1144
1149
1147
1149
1151
1153
1155
1154
1157
1160
1158
1158
1162
1162
1159
1153
1147
1142
1139
1136
1133
1127
1120
1113
1109
1109
1103
1099
1090
1085
1081
1080
1074
1068
1061
1059
1054
1049
1041
1034
1030
1029
1028
1028
1023
1018
1013
1009
1006
1008
1007
1003
1001
1001
1003
1003
1000
997
992
994
995
993
987
985
984
986
987
989
987
985
986
988
990
991
986
984
986
987
989
991
988
984
979
984
983
981
983
986
986
984
986
985
985
985
981
980
979
982
981
982
979
978
980
979
980
979
978
978
976
977
976
977
976
973
975
973
971
973
974
973
973
973
972
973
970
971
974
976
975
974
970
966
968
971
973
973
974
971
969
969
969
969
968
967
970
974
975
976
973
975
974
976
972
970
968
967
970
975
973
970
967
967
966
967
967
968
967
966
968
970
970
970
970
970
969
969
964
966
967
971
972
976
973
972
971
969
972
977
976
976
979
981
980
982
983
981
977
975
978
979
976
973
967
964
965
965
965
966
965
963
965
968
969
972
971
970
969
969
967
962
958
950
955
961
966
969
970
970
971
970
971
976
968
965
966
974
973
966
966
972
986
1004
1023
1037
1054
1071
1087
1109
1133
1157
1180
1196
1195
1175
1145
1096
1020
953
914
899
904
916
927
930
929
932
935
942
943
940
935
937
938
939
939
940
942
945
945
944
945
947
948
945
949
954
952
946
946
953
954
949
945
948
956
958
952
945
947
953
953
955
954
956
960
964
969
970
967
967
965
964
968
971
967
965
965
971
973
975
967
969
968
967
971
974
973
972
969
967
968
970
972
972
972
972
975
974
973
973
980
980
982
983
979
984
983
983
986
987
989
992
994
995
995
993
991
989
988
988
988
987
986
985
987
990
991
993
995
994
993
990
989
990
989
988
986
985
988
991
988
985
983
982
979
981
979
983
980
980
986
987
989
995
999
1000
1002
1008
1016
1023
1021
1023
1029
1034
1034
1034
1038
1039
1028
1001
946
867
777
692
626
595
592
592
595
601
626
656
680
700
713
723
747
780
812
834
840
846
856
874
892
902
910
919
936
957
968
968
963
973
991
1016
1037
1049
1052
1052
1054
1056
1058
1062
1063
1065
1074
1082
1085
1082
1085
1087
1087
1093
1101
1116
1119
1117
1118
1126
1132
1135
1134
1135
1135
1141
1154
1167
1179
1184
1181
1172
1161
1155
1153
1156
1165
1170
1171
1167
1163
1163
1159
1167
1166
1164
1161
1156
1152
1148
1138
1129
1120
1116
1113
1111
1107
1108
1110
1106
1097
1078
1066
1057
1058
1056
1052
1049
1042
1032
1030
1034
1035
1037
1035
1034
1032
1028
1025
1024
1019
1016
1015
1013
1013
1011
1009
1008
1007
1010
1011
1015
1013
1013
1011
1009
1010
1011
1013
1013
1009
1008
1006
1007
1004
1003
999
996
996
1000
1001
1002
1000
1000
1002
1001
999
996
997
1001
1004
1011
1016
1017
1015
1014
1017
1019
1018
1016
1017
1019
1021
1024
1026
1027
1027
1027
1026
1025
1027
1029
1026
1030
1032
1038
1048
1056
1063
1067
1072
1082
1092
1100
1107
1117
1129
1142
1158
1181
1205
1231
1256
1281
1297
1312
1320
1325
1320
1297
1250
1187
1120
1061
1013
963
917
881
857
838
841
851
862
871
881
887
897
904
909
910
914
918
926
929
928
926
926
924
922
920
918
919
921
918
916
915
914
913
909
907
909
911
912
911
910
909
909
910
914
917
917
914
914
914
911
906
904
901
898
897
898
898
899
902
905
907
908
909
911
912
912
910
907
905
907
913
921
924
923
922
921
921
923
924
932
934
934
934
935
939
940
944
945
944
946
949
947
951
956
956
959
961
962
960
960
956
957
957
956
956
955
957
960
962
960
963
962
961
964
966
966
963
959
955
958
962
963
964
961
961
963
963
961
960
962
960
959
966
965
964
962
960
964
968
970
966
966
966
965
966
966
964
965
964
966
968
970
970
966
971
971
974
973
972
972
971
972
975
975
973
975
977
978
980
979
980
978
977
976
973
971
974
974
974
974
976
973
970
968
969
971
972
974
976
976
974
975
977
976
976
977
979
982
982
976
971
971
967
973
975
978
980
977
978
974
974
971
968
969
969
970
970
968
969
972
973
978
981
981
976
972
974
975
977
976
976
974
975
976
976
976
976
974
975
974
976
976
975
976
975
976
978
977
979
980
979
976
976
971
965
968
977
982
986
983
982
981
981
983
987
989
989
987
984
985
984
986
986
986
983
982
981
980
976
980
980
986
987
986
985
983
983
982
982
983
983
980
979
986
989
991
990
988
985
988
992
991
986
984
983
980
985
987
989
986
987
989
992
990
991
992
992
995
1000
1000
996
992
986
987
992
1001
1000
995
992
993
995
994
992
991
990
995
994
992
989
985
986
988
989
990
990
988
987
993
994
994
994
992
988
990
991
990
990
986
988
987
989
991
988
988
988
992
994
992
992
987
985
984
986
993
1007
1021
1037
1059
1080
1101
1116
1132
1154
1180
1205
1228
1240
1239
1223
1197
1163
1107
1031
972
936
921
920
930
942
951
958
959
960
962
963
963
963
965
964
962
964
963
962
963
968
977
976
977
976
979
979
979
978
978
976
979
980
980
975
973
971
972
975
975
976
975
974
976
982
985
987
988
985
985
985
983
986
989
998
1005
1004
998
990
987
986
991
996
996
991
992
992
995
998
1004
1005
1007
1006
1006
1004
1006
1004
1000
999
1002
1007
1007
1008
1008
1009
1012
1014
1015
1010
1010
1010
1012
1014
1014
1015
1018
1016
1016
1018
1020
1026
1028
1032
1038
1041
1039
1033
1027
1025
1025
1025
1020
1016
1014
1018
1023
1026
1022
1014
1005
998
1004
1009
1009
1006
1006
1004
1008
1010
1008
1007
1006
1005
1007
1005
1003
1001
998
999
1002
1003
1004
1000
997
995
997
999
1001
998
996
995
994
997
996
996
997
996
999
1003
1003
1001
1003
1004
1009
1012
1014
1015
1014
1016
1017
1020
1019
1020
1024
1025
1029
1032
1037
1041
1046
1055
1069
1081
1089
1089
1083
1085
1090
1081
1053
998
920
844
779
729
694
667
652
646
644
646
646
644
646
657
679
699
715
734
753
766
783
799
811
821
835
850
871
887
899
915
931
942
950
957
957
958
958
956
961
965
969
979
990
1003
1015
1030
1041
1048
1054
1059
1066
1074
1080
1083
1084
1085
1091
1092
1092
1094
1093
1099
1104
1110
1109
1112
1114
1114
1114
1115
1115
1120
1123
1131
1136
1141
1143
1144
1144
1144
1147
1151
1155
1155
1154
1154
1160
1164
1166
1165
1165
1165
1166
1169
1171
1171
1169
1169
1173
1175
1174
1170
1164
1157
1157
1156
1157
1154
1149
1147
1147
1147
1145
1140
1131
1119
1110
1106
1105
1101
1097
1094
1092
1090
1087
1080
1071
1064
1067
1070
1065
1056
1049
1045
1044
1042
1037
1035
1033
1032
1031
1031
1030
1028
1024
1024
1025
1028
1030
1027
1018
1013
1010
1016
1016
1013
1010
1003
1003
1004
1006
1010
1013
1020
1024
1022
1012
1004
999
998
999
1001
999
996
998
1002
1005
1008
1008
1010
1007
1002
1000
996
992
995
997
999
1000
1007
1008
1007
1006
1004
1004
1005
1008
1009
1005
1001
993
993
989
996
1004
1010
1008
1002
991
977
969
972
981
984
988
991
993
992
993
992
991
993
994
997
999
994
985
980
985
988
990
992
996
995
992
989
989
992
991
987
985
987
992
995
990
987
985
991
992
993
992
993
992
993
1001
1005
998
990
984
987
988
985
987
989
996
1000
1004
1004
1001
995
992
988
989
990
991
989
984
983
983
986
984
981
980
983
986
988
987
987
987
989
989
989
985
984
978
980
984
989
987
984
979
976
977
979
975
978
978
978
980
982
983
982
976
974
972
973
971
970
972
980
991
1010
1027
1048
1066
1080
1093
1112
1132
1156
1178
1193
1200
1193
1174
1154
1123
1074
1016
971
943
924
917
921
932
942
942
942
944
944
948
949
945
943
944
944
943
944
942
947
950
957
957
955
952
948
948
950
955
961
967
967
962
955
949
948
944
947
947
946
950
953
957
955
954
954
957
962
962
962
961
960
962
962
960
957
956
956
959
962
963
963
964
962
961
963
963
964
965
965
968
967
967
969
969
969
970
972
970
970
971
970
972
972
972
968
967
966
971
978
978
980
978
980
984
985
984
982
975
974
977
981
981
983
983
982
988
989
989
987
983
981
983
984
985
983
983
982
981
982
984
979
979
977
979
979
980
979
977
974
977
977
976
975
973
974
975
974
974
974
970
965
966
974
979
981
982
985
987
984
978
974
973
976
980
985
984
981
982
987
996
1000
1002
1001
1002
1002
1001
1002
1006
1011
1012
1000
974
930
865
780
700
633
593
583
582
584
582
590
607
627
644
663
675
693
719
748
773
790
805
813
825
834
846
860
874
881
888
899
907
916
930
944
956
975
994
1006
1012
1014
1025
1038
1048
1053
1055
1056
1061
1072
1078
1085
1084
1087
1091
1095
1098
1101
1101
1101
1104
1114
1116
1120
1121
1120
1129
1133
1135
1137
1139
1139
1141
1146
1148
1149
1148
1146
1145
1147
1151
1153
1154
1151
1149
1150
1145
1142
1141
1142
1144
1138
1131
1121
1117
1115
1115
1110
1104
1095
1091
1088
1083
1076
1066
1059
1054
1049
1047
1044
1039
1033
1024
1019
1017
1017
1017
1014
1007
1002
1003
1003
1002
1001
995
992
991
994
994
989
984
985
983
979
982
983
982
981
979
980
984
984
984
981
985
990
988
989
989
991
990
989
991
991
989
985
988
990
991
988
984
986
986
988
992
993
991
986
984
985
986
988
986
984
981
978
981
982
981
978
979
982
983
979
975
973
975
973
970
969
967
969
976
979
982
984
984
983
983
982
979
977
977
984
988
988
985
981
977
977
977
979
980
976
971
973
975
980
984
982
977
979
978
981
981
978
975
973
973
973
971
966
968
970
971
970
968
968
972
979
981
981
976
973
971
970
975
978
980
980
977
974
975
978
977
976
974
969
971
974
973
972
970
975
985
987
985
981
977
978
982
984
984
985
983
981
982
981
979
977
978
979
983
984
984
984
983
980
976
978
983
985
987
980
981
985
988
987
984
982
982
986
988
987
985
981
986
988
992
992
991
991
995
996
996
995
990
990
993
996
995
991
986
987
987
985
985
981
978
976
979
983
984
984
983
982
982
986
985
992
994
997
1002
1004
1004
1004
1000
992
983
978
979
984
984
984
980
978
977
982
988
990
990
989
986
985
989
999
1019
1039
1059
1081
1101
1124
1150
1178
1202
1227
1243
1243
1232
1211
1162
1075
988
933
913
919
930
945
953
952
955
958
959
957
953
946
943
945
947
951
956
962
965
967
971
981
983
980
978
976
971
966
963
970
973
969
966
967
970
970
970
969
971
975
975
972
970
973
978
980
986
988
988
981
972
968
968
972
974
974
975
975
974
975
977
979
981
981
981
978
977
976
975
977
978
976
975
977
981
980
980
984
987
993
994
990
988
989
992
995
999
998
997
996
996
999
1000
1000
999
997
994
997
999
999
997
999
