Time,Modified_Signal
0.0,0.00037484949174646637
0.00025,0.0002735559058574989
0.0005,0.00014018566444807298
0.00075,-5.268140659518348e-06
0.001,-0.00014130320218000563
0.00125,-0.0002552420139701917
0.0015,-0.0003382991752576629
0.00175,-0.00038698521232426864
0.002,-0.0004026390423398908
0.00225,-0.0003901038353138344
0.0025,-0.0003572102842218261
0.00275,-0.0003125054147133064
0.003,-0.0002638809477482416
0.00325,-0.0002167805375386677
0.0035,-0.00017493105567682895
0.00375,-0.0001395726474506834
0.004,-0.00011048327747614246
0.00425,-8.679954827378127e-05
0.0045,-6.671753121025693e-05
0.00475,-4.775573738155643e-05
0.005,-2.7321555182162245e-05
0.00525,-3.0862558660963104e-06
0.0055,2.650031810105626e-05
0.00575,6.179788831364088e-05
0.006,0.00010217365767470026
0.00625,0.0001458612739817566
0.0065,0.00019009348499165693
0.00675,0.00023163980019622944
0.007,0.0002672643875159669
0.00725,0.0002942284984252597
0.0075,0.0003108005102488079
0.00775,0.0003169479840251378
0.008,0.00031274551476959627
0.00825,0.00030023704702118726
0.0085,0.0002825824836108047
0.00875,0.0002628550513725259
0.009,0.0002430774011895969
0.00925,0.0002253933419266276
0.0095,0.00021125212563387704
0.00975,0.0002001997945498031
0.01,0.00019072759160340374
0.01025,0.00018100424853333775
0.0105,0.0001688939637662056
0.01075,0.00015250319276193582
0.011,0.00013024520025963531
0.01125,0.00010237145161861777
0.0115,6.913574207477647e-05
0.01175,3.352503218423022e-05
0.012,-2.3064476212775226e-06
0.01225,-3.4921796375946647e-05
0.0125,-6.0425418485773804e-05
0.01275,-7.709452925147373e-05
0.013,-8.24593005047691e-05
0.01325,-7.738249762796502e-05
0.0135,-6.29166400673118e-05
0.01375,-4.133578078202845e-05
0.014,-1.644152973193156e-05
0.01425,8.557930562028243e-06
0.0145,3.0751177179709026e-05
0.01475,4.7320487090360485e-05
0.015,5.7039809458151956e-05
0.01525,6.077182285489844e-05
0.0155,5.936403120955282e-05
0.01575,5.5037297821755676e-05
0.016,5.111579594673983e-05
0.01625,4.928223461915486e-05
0.0165,5.1646757729404286e-05
0.01675,5.9531709770441825e-05
0.017,7.249962634663344e-05
0.01725,8.916727856531843e-05
0.0175,0.00010721063015035792
0.01775,0.00012384886928194522
0.018,0.00013628810436158836
0.01825,0.00014235028576941504
0.0185,0.0001408129861639775
0.01875,0.00013155491073814574
0.019,0.00011570181415202936
0.01925,9.534060741114819e-05
0.0195,7.31380738399438e-05
0.01975,5.193269861064183e-05
0.02,3.407029348202322e-05
0.02025,2.1221781786783523e-05
0.0205,1.3813338648922999e-05
0.02075,1.1190233105528586e-05
0.021,1.1721590358773015e-05
0.02125,1.2984365006456625e-05
0.0215,1.251089146552695e-05
0.02175,7.959584435481534e-06
0.022,-2.1585753334873965e-06
0.02225,-1.8243252359324706e-05
0.0225,-3.952362631480653e-05
0.02275,-6.414427206933886e-05
0.023,-8.939468796981415e-05
0.02325,-0.00011223062206177625
0.0235,-0.00012975057333480545
0.02375,-0.0001396534392901193
0.024,-0.00014081287724339525
0.02425,-0.00013318932193880312
0.0245,-0.00011799294692051335
0.02475,-9.739254061697654e-05
0.025,-7.425013045091121e-05
0.02525,-5.135846971270026e-05
0.0255,-3.117288076693878e-05
0.02575,-1.5264240693768124e-05
0.026,-4.098830499605156e-06
0.02625,2.9999482286642164e-06
0.0265,7.5387979503924965e-06
0.02675,1.174955254110856e-05
0.027,1.8062921020897936e-05
0.02725,2.8558327034982584e-05
0.0275,4.45355174509607e-05
0.02775,6.611330671789646e-05
0.028,9.217398431823062e-05
0.02825,0.0001210181317971774
0.0285,0.00015002737346947963
0.02875,0.00017521010761932222
0.029,0.0001942471888578714
0.02925,0.00020423533740890261
0.0295,0.00020414253528928134
0.02975,0.00019440974401919856
0.03,0.00017586900070406852
0.03025,0.00015077124793876371
0.0305,0.00012263946587580396
0.03075,9.391929982641013e-05
0.031,6.758215500236486e-05
0.03125,4.608405346841366e-05
0.0315,2.9761440808993455e-05
0.03175,1.9092007857323004e-05
0.032,1.3106734431303011e-05
0.03225,9.89866934280476e-06
0.0325,7.642756547339684e-06
0.03275,4.57804064296982e-06
0.033,-6.738240688209636e-07
0.03325,-8.676525332000899e-06
0.0335,-1.9257859417031906e-05
0.03375,-3.1535426921461726e-05
0.034,-4.4169628787098835e-05
0.03425,-5.568650862611358e-05
0.0345,-6.507104352425996e-05
0.03475,-7.188254573999351e-05
0.035,-7.559572776158259e-05
0.03525,-7.490900078181363e-05
0.0355,-6.880139520987068e-05
0.03575,-5.434560353499452e-05
0.036,-2.964080941714397e-05
0.03625,8.046675350532988e-06
0.0365,6.265053602818862e-05
0.03675,0.00013419919826436748
0.037,0.00021880533948687105
0.03725,0.00030755017848586
0.0375,0.00038772676401746634
0.03775,0.0004411387907508097
0.038,0.0004570060036967534
0.03825,0.00042450529800770476
0.0385,0.00034868558142560395
0.03875,0.000248477345518085
0.039,0.00014202062074943213
0.03925,4.5826579913813996e-05
0.0395,-3.0025480944343993e-05
0.03975,-8.170978810662795e-05
0.04,-0.00011007899534652119
0.04025,-0.00011845735540461059
0.0405,-0.00011524461029546278
0.04075,-0.00010683004945434008
0.041,-9.796469712690929e-05
0.04125,-9.027990910873596e-05
0.0415,-8.520018135495312e-05
0.04175,-8.2684828494738e-05
0.042,-8.058079282244507e-05
0.04225,-7.608678839365246e-05
0.0425,-6.786301996894437e-05
0.04275,-5.5625873764061853e-05
0.043,-4.017695624259778e-05
0.04325,-2.2965683985160876e-05
0.0435,-5.8973292118234435e-06
0.04375,9.185383339077487e-06
0.044,2.0962169678269218e-05
0.04425,2.9119852167544338e-05
0.0445,3.402293683913193e-05
0.04475,3.6844852578586325e-05
0.045,3.917089761152398e-05
0.04525,4.2771311354000756e-05
0.0455,4.9711754461846864e-05
0.04575,6.082526618616748e-05
0.046,7.657542728634993e-05
0.04625,9.629588990098057e-05
0.0465,0.000119656685639261
0.04675,0.00014407679696283094
0.047,0.00016771942853995353
0.04725,0.00018890126811254432
0.0475,0.00020529940258635787
0.04775,0.00021600764618168866
0.048,0.0002208948318346464
0.04825,0.0002205668399992332
0.0485,0.00021597976123304528
0.04875,0.00020921827570841996
0.049,0.00020125079012255488
0.04925,0.0001941782610998731
0.0495,0.0001888676104829778
0.04975,0.00018506813259908057
0.05,0.00018314634518566824
0.05025,0.0001813135706519397
0.0505,0.00017862395492729033
0.05075,0.00017347824871246308
0.051,0.00016494404236663774
0.05125,0.00015162096338269522
0.0515,0.0001334321960076902
0.05175,0.00011157558403453052
0.052,8.685204852239216e-05
0.05225,6.10287075763568e-05
0.0525,3.648794068409867e-05
0.05275,1.509198915214715e-05
0.053,-1.5553394215822603e-06
0.05325,-1.2543304915939782e-05
0.0535,-1.7185796635834172e-05
0.05375,-1.6185654708660606e-05
0.054,-1.0528415372603451e-05
0.05425,-1.3011753828244106e-06
0.0545,8.698999571222269e-06
0.05475,1.9331066654230216e-05
0.055,2.8028884270191403e-05
0.05525,3.501030266765782e-05
0.0555,3.962951525327577e-05
0.05575,4.253252767362365e-05
0.056,4.4456023757984535e-05
0.05625,4.647382439348208e-05
0.0565,4.9542316707373625e-05
0.05675,5.432646560494575e-05
0.057,6.108644796719458e-05
0.05725,6.949531725910723e-05
0.0575,7.878485086919041e-05
0.05775,8.78203825084442e-05
0.058,9.522890174766726e-05
0.05825,9.9794370595312e-05
0.0585,0.00010049115149657724
0.05875,9.68472378111429e-05
0.059,8.888142219502611e-05
0.05925,7.72474679922509e-05
0.0595,6.304190770674242e-05
0.05975,4.755350058947733e-05
0.06,3.2193036113749024e-05
0.06025,1.8290680613448423e-05
0.0605,6.629790162699454e-06
0.06075,-2.3151975601469123e-06
0.061,-8.622330722466369e-06
0.06125,-1.2899133435955784e-05
0.0615,-1.6003580766540828e-05
0.06175,-1.898679871619563e-05
0.062,-2.276907715680097e-05
0.06225,-2.8035024209080766e-05
0.0625,-3.504296799061338e-05
0.06275,-4.360235290784317e-05
0.063,-5.309378674158945e-05
0.06325,-6.240004676738274e-05
0.0635,-7.026378397971599e-05
0.06375,-7.54036674414459e-05
0.064,-7.681767676545209e-05
0.06425,-7.38572615408781e-05
0.0645,-6.63234344437793e-05
0.06475,-5.448916360769469e-05
0.065,-3.910523930481459e-05
0.06525,-2.1334479931286074e-05
0.0655,-2.0105027913372908e-06
0.06575,1.778257629089885e-05
0.066,3.685041552900064e-05
0.06625,5.440908106027335e-05
0.0665,7.038497870361093e-05
0.06675,8.421164615126514e-05
0.067,9.624211413868995e-05
0.06725,0.00010746147789477789
0.0675,0.00011778791738708344
0.06775,0.0001277650246328465
0.068,0.00013726871444001346
0.06825,0.00014660967004896745
0.0685,0.00015493844845608645
0.06875,0.00016199172249334805
0.069,0.00016645254292020905
0.06925,0.00016835074932957414
0.0695,0.00016669594408272662
0.06975,0.00016155645206535876
0.07,0.0001532751923738494
0.07025,0.00014200138680082737
0.0705,0.00012805467066045277
0.07075,0.00011260593321461493
0.071,9.662703443834486e-05
0.07125,8.078812027435058e-05
0.0715,6.582023054333555e-05
0.07175,5.230471398958122e-05
0.072,4.038109905603435e-05
0.07225,2.9663848344303182e-05
0.0725,1.893613370155318e-05
0.07275,7.213480647355135e-06
0.073,-6.622448874176791e-06
0.07325,-2.3195535465762985e-05
0.0735,-4.320443486455284e-05
0.07375,-6.605836888014457e-05
0.074,-8.765844225869663e-05
0.07425,-0.00010216437485883403
0.0745,-0.00010422791622435012
0.07475,-8.918761504076585e-05
0.075,-5.262106431759641e-05
0.07525,9.217504535772658e-06
0.0755,9.732193940006557e-05
0.07575,0.0001991087410713461
0.076,0.00029877707254168253
0.07625,0.0003813342043272649
0.0765,0.00043031545987923616
0.07675,0.0004313609962773358
0.077,0.00038171409790157016
0.07725,0.0002958700752019324
0.0775,0.00019590205195545358
0.07775,9.620456974672535e-05
0.078,9.503371952750806e-06
0.07825,-5.548558703564567e-05
0.0785,-9.483014982746331e-05
0.07875,-0.00011094727586811264
0.079,-0.00010821032951445551
0.07925,-9.185235784145437e-05
0.0795,-6.686185435523671e-05
0.07975,-4.0496562775341736e-05
0.08,-1.7472741483599582e-05
0.08025,1.1649411921766972e-06
0.0805,1.5523452825187185e-05
0.08075,2.5889330250518602e-05
0.081,3.308309295499993e-05
0.08125,3.828179868108042e-05
0.0815,4.229952259750721e-05
0.08175,4.53370029632691e-05
0.082,4.789272069399079e-05
0.08225,5.029234239075556e-05
0.0825,5.30655160319044e-05
0.08275,5.650571090828134e-05
0.083,6.099283677114734e-05
0.08325,6.643364273254762e-05
0.0835,7.302235794242014e-05
0.08375,8.094055027062821e-05
0.084,8.953475939728856e-05
0.08425,9.853437898958592e-05
0.0845,0.00010750669626660481
0.08475,0.00011615274296131361
0.085,0.00012407341699421766
0.08525,0.00013081827569079034
0.0855,0.00013671740032117073
0.08575,0.00014150446552922558
0.086,0.00014546062154444903
0.08625,0.0001486188507741322
0.0865,0.00015178452373998616
0.08675,0.000154497164103107
0.087,0.0001577086109982296
0.08725,0.00016130937880745643
0.0875,0.00016470539807880035
0.08775,0.00016775243723704712
0.088,0.00017067855094763987
0.08825,0.00017284565840745345
0.0885,0.00017329967485571593
0.08875,0.0001724390590489634
0.089,0.00016954287824854129
0.08925,0.00016464163642010703
0.0895,0.0001577904725361024
0.08975,0.00014934326954336974
0.09,0.00013968332176780938
0.09025,0.00012945911651114392
0.0905,0.00011994288795353255
0.09075,0.00011102225024356075
0.091,0.00010326655247470297
0.09125,9.7322416106814e-05
0.0915,9.232836607169988e-05
0.09175,8.887870828630074e-05
0.092,8.627192939596045e-05
0.09225,8.413514014302936e-05
0.0925,8.17460616012853e-05
0.09275,7.894953598385594e-05
0.093,7.60194046140764e-05
0.09325,7.219302447769212e-05
0.0935,6.806845169505388e-05
0.09375,6.398448593966752e-05
0.094,6.071336995271523e-05
0.09425,5.832004477373668e-05
0.0945,5.766251436264089e-05
0.09475,5.8329229815857835e-05
0.095,6.053136973809447e-05
0.09525,6.38871176444526e-05
0.0955,6.796310864060485e-05
0.09575,7.202200238188681e-05
0.096,7.536231524599635e-05
0.09625,7.728609408563469e-05
0.0965,7.736722032395149e-05
0.09675,7.525875470860832e-05
0.097,7.098148310833435e-05
0.09725,6.480316844555144e-05
0.0975,5.726020015049156e-05
0.09775,4.8946655650401364e-05
0.098,4.0592329105869706e-05
0.09825,3.265900497366849e-05
0.0985,2.5578493392350953e-05
0.09875,1.9520121882196186e-05
0.099,1.4306515542645492e-05
0.09925,9.56058714699652e-06
0.0995,4.773855434983034e-06
0.09975,-6.981868159671079e-07
0.1,-7.184347364364067e-06
0.10025,-1.5091007844179369e-05
0.1005,-2.4272919436479437e-05
0.10075,-3.4488859038599165e-05
0.101,-4.5013694342780826e-05
0.10125,-5.50222091745522e-05
0.1015,-6.351672462391238e-05
0.10175,-6.954802026208268e-05
0.102,-7.230897559032653e-05
0.10225,-7.134249042025554e-05
0.1025,-6.643214482180798e-05
0.10275,-5.7850635133347144e-05
0.103,-4.60367724324231e-05
0.10325,-3.176459822030586e-05
0.1035,-1.5804730725766757e-05
0.10375,7.704864853579331e-07
0.104,1.755061080688663e-05
0.10425,3.4385724643916395e-05
0.1045,5.0195965665239324e-05
0.10475,6.579125074783117e-05
0.105,8.114438309577699e-05
0.10525,9.705688559750986e-05
0.1055,0.00011342304584928387
0.10575,0.00013015643973032765
0.106,0.00014755423267130054
0.10625,0.0001642149953232219
0.1065,0.0001801839003906749
0.10675,0.00019433999563655052
0.107,0.0002054644053030773
0.10725,0.0002124681440768243
0.1075,0.0002147128867501389
0.10775,0.00021232786530936155
0.108,0.0002046604402713191
0.10825,0.00019261707592817804
0.1085,0.00017726277301070872
0.10875,0.0001592180748631797
0.109,0.00014053970369702103
0.10925,0.00012158063602653261
0.1095,0.00010399425748418607
0.10975,8.736622276323465e-05
0.11,7.221223552781672e-05
0.11025,5.866462170621939e-05
0.1105,4.567043487186203e-05
0.11075,3.261355524454081e-05
0.111,1.89577577080004e-05
0.11125,3.3141820721924617e-06
0.1115,-1.5448190521955714e-05
0.11175,-3.7977890520368505e-05
0.112,-6.367402731240862e-05
0.11225,-9.144318599458453e-05
0.1125,-0.00011930934317552662
0.11275,-0.00014437484683469637
0.113,-0.00015918405117558356
0.11325,-0.00015806050090352375
0.1135,-0.00013656080628631387
0.11375,-9.137412762550184e-05
0.114,-2.144876574522854e-05
0.11425,7.363960819990751e-05
0.1145,0.00018755863630374133
0.11475,0.00029549311788088916
0.115,0.0003802019204165793
0.11525,0.0004322173443623388
0.1155,0.00043389528264570237
0.11575,0.0003886260365553476
0.116,0.0003044468601845208
0.11625,0.0002029690440976672
0.1165,0.00010408799199867863
0.11675,2.1921425412084664e-05
0.117,-3.539218326221519e-05
0.11725,-6.50052685461825e-05
0.1175,-6.831408093525008e-05
0.11775,-5.0766683044660134e-05
0.118,-2.19674746959792e-05
0.11825,1.0905085824015773e-05
0.1185,4.142925432457287e-05
0.11875,6.60499845429595e-05
0.119,8.218306109428337e-05
0.11925,9.018666101496219e-05
0.1195,9.173792757188953e-05
0.11975,8.978185563041237e-05
0.12,8.561551977965591e-05
0.12025,8.097772974733792e-05
0.1205,7.682346935783974e-05
0.12075,7.413051735959094e-05
0.121,7.284236055277196e-05
0.12125,7.299085914094067e-05
0.1215,7.364598444134165e-05
0.12175,7.408606122349517e-05
0.122,7.356503442543974e-05
0.12225,7.141735091992476e-05
0.1225,6.734436578811453e-05
0.12275,6.200334806327262e-05
0.123,5.524033928884072e-05
0.12325,4.8049217931651756e-05
0.1235,4.206058602095981e-05
0.12375,3.77126741008741e-05
0.124,3.6632114277037985e-05
0.12425,3.918444571007774e-05
0.1245,4.521058545665289e-05
0.12475,5.5143813264663604e-05
0.125,6.71684058169191e-05
0.12525,8.147444922903585e-05
0.1255,9.608883651677889e-05
0.12575,0.00011001378951678546
0.126,0.00012214802897595047
0.12625,0.00013224344839005841
0.1265,0.00013958715490339723
0.12675,0.00014540730866594132
0.127,0.00014971141445590627
0.12725,0.0001532692777901794
0.1275,0.00015724439882886583
0.12775,0.00016194650238887816
0.128,0.00016824955372368996
0.12825,0.00017542240868454714
0.1285,0.00018339839008783636
0.12875,0.0001917474037531198
0.129,0.00019894076352305561
0.12925,0.000203888083801921
0.1295,0.00020616402605016257
0.12975,0.00020400189175408538
0.13,0.00019821652335138152
0.13025,0.00018832034598062757
0.1305,0.00017534748435723456
0.13075,0.00015974044271448517
0.131,0.00014355739399447975
0.13125,0.00012714954675907862
0.1315,0.00011191472286726187
0.13175,9.853818092617767e-05
0.132,8.755928355617555e-05
0.13225,7.87965762598922e-05
0.1325,7.117165161971858e-05
0.13275,6.471944451027538e-05
0.133,5.831904107140952e-05
0.13325,5.1124083123747015e-05
0.1335,4.260713977121581e-05
0.13375,3.274792163583926e-05
0.134,2.172923544243595e-05
0.13425,1.012706200774225e-05
0.1345,-1.2005131843008514e-06
0.13475,-1.131573431140584e-05
0.135,-1.9443861750509022e-05
0.13525,-2.495212380744694e-05
0.1355,-2.7677437776954105e-05
0.13575,-2.7790291302781806e-05
0.136,-2.5909016346147457e-05
0.13625,-2.2901546917355408e-05
0.1365,-1.9821242224419042e-05
0.13675,-1.7647491976395714e-05
0.137,-1.718991116071654e-05
0.13725,-1.8849261748477407e-05
0.1375,-2.2626864531148127e-05
0.13775,-2.807655033963066e-05
0.138,-3.433844284892152e-05
0.13825,-4.044589624720031e-05
0.1385,-4.526018312125531e-05
0.13875,-4.787147269491974e-05
0.139,-4.7564529915781646e-05
0.13925,-4.412388311228294e-05
0.1395,-3.771362309049628e-05
0.13975,-2.8964099701119752e-05
0.14,-1.8743815963813403e-05
0.14025,-8.127806359555312e-06
0.1405,1.925892410817644e-06
0.14075,1.0606413811207038e-05
0.141,1.7540829222897607e-05
0.14125,2.2658157418751624e-05
0.1415,2.6575919038477986e-05
0.14175,3.016314188140897e-05
0.142,3.444671711260629e-05
0.14225,4.0009919215031596e-05
0.1425,4.765326290053896e-05
0.14275,5.753367297620263e-05
0.143,6.955060187273974e-05
0.14325,8.35573826891399e-05
0.1435,9.833829760753026e-05
0.14375,0.00011328733477165362
0.144,0.00012670151551405772
0.14425,0.00013810725802765293
0.1445,0.00014587581536378876
0.14475,0.00015000624189666971
0.145,0.00015033765378629892
0.14525,0.00014701677574805434
0.1455,0.00014043234857715877
0.14575,0.00013158844369885156
0.146,0.00012145217165855188
0.14625,0.00011114314872223883
0.1465,0.00010118915331421778
0.14675,9.245925484034246e-05
0.147,8.453265558886009e-05
0.14725,7.724988706371149e-05
0.1475,6.97493734830972e-05
0.14775,6.20487721512339e-05
0.148,5.3095316683546945e-05
0.14825,4.275035987254995e-05
0.1485,3.109839185173035e-05
0.14875,1.8791764616312574e-05
0.149,5.6173521050243336e-06
0.14925,-7.872808225271398e-06
0.1495,-2.1539654107819485e-05
0.14975,-3.472122666017428e-05
0.15,-4.7315340908692406e-05
0.15025,-5.906794321635186e-05
0.1505,-7.054777754728764e-05
0.15075,-8.210248097374067e-05
0.151,-9.47873545635905e-05
0.15125,-0.00010682051726254276
0.1515,-0.00011271700462748424
0.15175,-0.00010644956076544449
0.152,-8.36983998520706e-05
0.15225,-4.2393371588099645e-05
0.1525,1.9193455034219096e-05
0.15275,0.00010088117325419879
0.153,0.00019924528571143093
0.15325,0.0002960169851748266
0.1535,0.00037024154110466156
0.15375,0.0004116112392777536
0.154,0.0004063171788202637
0.15425,0.00035577919156239455
0.1545,0.0002752312046495431
0.15475,0.00018171123051982893
0.155,9.349640948583317e-05
0.15525,2.181167798382625e-05
0.1555,-2.7816298646852453e-05
0.15575,-5.364768134760229e-05
0.156,-5.756454865492948e-05
0.15625,-4.77270207960985e-05
0.1565,-3.006873134862206e-05
0.15675,-9.5039156100472e-06
0.157,9.740861038213871e-06
0.15725,2.6493024080409882e-05
0.1575,3.817389414592525e-05
0.15775,4.592461523260096e-05
0.158,5.0760841976694544e-05
0.15825,5.388350993613372e-05
0.1585,5.5335951722829693e-05
0.15875,5.542564029611887e-05
0.159,5.37516626896564e-05
0.15925,5.0350608671022036e-05
0.1595,4.487686358496202e-05
0.15975,3.7678261635527826e-05
0.16,2.9131247687549032e-05
0.16025,2.0449397263545892e-05
0.1605,1.2215047363281422e-05
0.16075,5.832162227131083e-06
0.161,1.6903682830010173e-06
0.16125,2.194161144055242e-07
0.1615,2.450959869652521e-06
0.16175,7.001338672176946e-06
0.162,1.416639002806225e-05
0.16225,2.283631423986881e-05
0.1625,3.2208584868901696e-05
0.16275,4.182634724977553e-05
0.163,5.07344084321071e-05
0.16325,5.840466477579012e-05
0.1635,6.516181668448779e-05
0.16375,7.162721862570239e-05
0.164,7.758653330240293e-05
0.16425,8.420949502201635e-05
0.1645,9.222516515928491e-05
0.16475,0.00010152798152289491
0.165,0.0001129728267704858
0.16525,0.0001260388123643795
0.1655,0.0001397783632134577
0.16575,0.00015386277564301214
0.166,0.00016730315518196468
0.16625,0.0001790259428887296
0.1665,0.0001879270143082414
0.16675,0.00019426070153726863
0.167,0.00019729507377444876
0.16725,0.000196950895956836
0.1675,0.00019387806420004687
0.16775,0.00018864896301528712
0.168,0.00018242416584448288
0.16825,0.00017552012142051798
0.1685,0.00016843490202060225
0.16875,0.00016196391874333184
0.169,0.00015566428240166533
0.16925,0.00014958831800994423
0.1695,0.00014313218918971362
0.16975,0.0001357873811473653
0.17,0.00012657380078461648
0.17025,0.00011554004876612771
0.1705,0.00010149941977309503
0.17075,8.544374352906048e-05
0.171,6.70170512170936e-05
0.17125,4.7275072122594515e-05
0.1715,2.6693461747259145e-05
0.17175,6.515837903601725e-06
0.172,-1.2625403691203806e-05
0.17225,-2.9742537516875723e-05
0.1725,-4.4593763159668576e-05
0.17275,-5.678954575811031e-05
0.173,-6.670513225036184e-05
0.17325,-7.438806029927337e-05
0.1735,-8.062156484622253e-05
0.17375,-8.569131299681944e-05
0.174,-9.020807097117544e-05
0.17425,-9.42567823832054e-05
0.1745,-9.799733068419413e-05
0.17475,-0.00010097586295683261
0.175,-0.00010297307826956591
0.17525,-0.00010324262307470848
0.1755,-0.00010133852341255025
0.17575,-9.669376790326679e-05
0.176,-8.931986534828554e-05
0.17625,-7.912942578408286e-05
0.1765,-6.677602883640863e-05
0.17675,-5.2723917964374405e-05
0.177,-3.799178571563735e-05
0.17725,-2.3402132743086475e-05
0.1775,-9.992803784461475e-06
0.17775,1.8021445661461676e-06
0.178,1.1307262325860575e-05
0.17825,1.8715627859943188e-05
0.1785,2.408819005528676e-05
0.17875,2.8165737167495048e-05
0.179,3.14057222311026e-05
0.17925,3.479451808769248e-05
0.1795,3.880017475879118e-05
0.17975,4.435470189971987e-05
0.18,5.1311504779480636e-05
0.18025,5.965036395630173e-05
0.1805,6.858030330591749e-05
0.18075,7.76360037424304e-05
0.181,8.58841687197153e-05
0.18125,9.273542432563191e-05
0.1815,9.74379307908511e-05
0.18175,0.00010007096932758162
0.182,0.00010003018632506248
0.18225,9.821668068127034e-05
0.1825,9.466775202665192e-05
0.18275,8.973375739495229e-05
0.183,8.405055962019359e-05
0.18325,7.823644804005365e-05
0.1835,7.178740280994585e-05
0.18375,6.572348062222436e-05
0.184,5.875688525942847e-05
0.18425,5.115734889929396e-05
0.1845,4.248116015363125e-05
0.18475,3.303107271513086e-05
0.185,2.2651410468670186e-05
0.18525,1.0863534210956623e-05
0.1855,-1.4995086170404268e-06
0.18575,-1.4407395313367503e-05
0.186,-2.716357069170925e-05
0.18625,-3.89610548609909e-05
0.1865,-4.920195123941689e-05
0.18675,-5.7029806087029055e-05
0.187,-6.206915838554133e-05
0.18725,-6.381403353457316e-05
0.1875,-6.336786381677513e-05
0.18775,-6.125727546366899e-05
0.188,-5.906955221156322e-05
0.18825,-5.74297363700091e-05
0.1885,-5.8158687507349934e-05
0.18875,-6.154954562259386e-05
0.189,-6.932127545365577e-05
0.18925,-8.12754545914764e-05
0.1895,-9.101233269250773e-05
0.18975,-9.136848083554454e-05
0.19,-7.627939550277485e-05
0.19025,-4.2555709043221585e-05
0.1905,1.1996827766399553e-05
0.19075,8.708713786700449e-05
0.191,0.0001808616245645015
0.19125,0.00028677707272811443
0.1915,0.00038219904735133716
0.19175,0.0004466644087098033
0.192,0.0004660924860534459
0.19225,0.00043367653903853714
0.1925,0.0003580828665005462
0.19275,0.0002534919975627778
0.193,0.00014309706548037098
0.19325,4.1345341462888534e-05
0.1935,-4.0428753735286275e-05
0.19375,-9.731068244974544e-05
0.194,-0.000128271247464237
0.19425,-0.0001385926032527716
0.1945,-0.00013202266800893135
0.19475,-0.00011470740356056577
0.195,-9.310289220487979e-05
0.19525,-7.336470146671194e-05
0.1955,-5.793911274652838e-05
0.19575,-4.649118130397383e-05
0.196,-3.917864388074363e-05
0.19625,-3.4929297274756525e-05
0.1965,-3.3004539298602796e-05
0.19675,-3.206495817986808e-05
0.197,-3.175012871622109e-05
0.19725,-3.1576044865473354e-05
0.1975,-3.1073158625640874e-05
0.19775,-2.970962292259063e-05
0.198,-2.7130286880315557e-05
0.19825,-2.3086680302831564e-05
0.1985,-1.7594382751755123e-05
0.19875,-1.0719437095071602e-05
0.199,-2.77981722704854e-06
0.19925,5.910480620963853e-06
0.1995,1.4829211190053618e-05
0.19975,2.375607615080442e-05
0.2,3.229191201819659e-05
0.20025,4.048127621408837e-05
0.2005,4.7706635010961654e-05
0.20075,5.472242249184397e-05
0.201,6.17846761060646e-05
0.20125,6.911679970956478e-05
0.2015,7.645339740410646e-05
0.20175,8.478943574349708e-05
0.202,9.376535115862827e-05
0.20225,0.00010312270778612488
0.2025,0.00011341197120745828
0.20275,0.00012312045402140188
0.203,0.00013229207626348007
0.20325,0.00014086358885596046
0.2035,0.00014809346357718802
0.20375,0.0001532451861653636
0.204,0.00015654780293871299
0.20425,0.00015796893163436284
0.2045,0.00015746506715341716
0.20475,0.00015561328963645604
0.205,0.00015245436082740048
0.20525,0.00014808889808450815
0.2055,0.00014354713205063215
0.20575,0.00013806473680233225
0.206,0.00013239024107467514
0.20625,0.0001265756205022116
0.2065,0.00012017455049616091
0.20675,0.00011299726248366392
0.207,0.00010562890761282485
0.20725,9.68196149943652e-05
0.2075,8.731254751039041e-05
0.20775,7.692720677032279e-05
0.208,6.575973950071355e-05
0.20825,5.3820065804192346e-05
0.2085,4.164765662038754e-05
0.20875,2.9341556812670244e-05
0.209,1.74182981715604e-05
0.20925,6.034821150477511e-06
0.2095,-4.5067032280656745e-06
0.20975,-1.4260329171093444e-05
0.21,-2.316910008793515e-05
0.21025,-3.1345939572824415e-05
0.2105,-3.892873584796752e-05
0.21075,-4.6063031243486696e-05
0.211,-5.2894908532137135e-05
0.21125,-5.949496704240419e-05
0.2115,-6.588079044791853e-05
0.21175,-7.198987099084185e-05
0.212,-7.7696687882648e-05
0.21225,-8.267275463933992e-05
0.2125,-8.664731800908437e-05
0.21275,-8.981689291729473e-05
0.213,-9.173824616330161e-05
0.21325,-9.185564986738469e-05
0.2135,-9.050146997828869e-05
0.21375,-8.807320196883679e-05
0.214,-8.38726065465586e-05
0.21425,-7.888602659660491e-05
0.2145,-7.272165690934278e-05
0.21475,-6.596897280594904e-05
0.215,-5.911987136653412e-05
0.21525,-5.1792296164283495e-05
0.2155,-4.4732494352596054e-05
0.21575,-3.774558403294986e-05
0.216,-3.0602915219844615e-05
0.21625,-2.3518653727052923e-05
0.2165,-1.6673838745689148e-05
0.21675,-9.491994976563465e-06
0.217,-2.1682443734472387e-06
0.21725,5.57142878349534e-06
0.2175,1.3604462133625842e-05
0.21775,2.2045661078007504e-05
0.218,3.069413555352939e-05
0.21825,3.95934633581663e-05
0.2185,4.8507660369647015e-05
0.21875,5.728730665113852e-05
0.219,6.538302696871178e-05
0.21925,7.260038315840759e-05
0.2195,7.847502550811358e-05
0.21975,8.298221979947905e-05
0.22,8.578022424184021e-05
0.22025,8.70910570681003e-05
0.2205,8.709736923682152e-05
0.22075,8.548919173172627e-05
0.221,8.223504357183421e-05
0.22125,7.821792382571378e-05
0.2215,7.206991227625643e-05
0.22175,6.479411193822519e-05
0.222,5.554571487496017e-05
0.22225,4.494145228253527e-05
0.2225,3.298970239968471e-05
0.22275,2.0343971309202358e-05
0.223,6.9394890408002186e-06
0.22325,-6.811864326806412e-06
0.2235,-2.0153828723908228e-05
0.22375,-3.321930711005372e-05
0.224,-4.5368250368324255e-05
0.22425,-5.6150113414307855e-05
0.2245,-6.519284575533582e-05
0.22475,-7.202496731663992e-05
0.225,-7.654742021556766e-05
0.22525,-7.837538334379954e-05
0.2255,-7.796346148532631e-05
0.22575,-7.5545173232247e-05
0.226,-7.252701869354823e-05
0.22625,-6.964117840787783e-05
0.2265,-6.878335832031711e-05
0.22675,-6.966225927379582e-05
0.227,-7.476031032572857e-05
0.22725,-8.23448528261394e-05
0.2275,-8.836881640601741e-05
0.22775,-8.901263234349294e-05
0.228,-7.969676073159767e-05
0.22825,-5.4665404610077884e-05
0.2285,-8.744404923861153e-06
0.22875,6.119644591970066e-05
0.229,0.00015103468424031637
0.22925,0.0002535069308367036
0.2295,0.00035425722072189597
0.22975,0.00043912277248451913
0.23,0.00048308933068220045
0.23025,0.00046915913661040417
0.2305,0.00041074331852687613
0.23075,0.0003179429073392674
0.231,0.00020810628288108938
0.23125,9.602625993196531e-05
0.2315,9.507566468640824e-07
0.23175,-7.072676883774538e-05
0.232,-0.00011795323760517416
0.23225,-0.0001421858819783645
0.2325,-0.00014620477940328574
0.23275,-0.00013730630943713452
0.233,-0.00012150274534132921
0.23325,-0.0001057091285613771
0.2335,-9.2217127461108e-05
0.23375,-8.246487271703517e-05
0.234,-7.682482945859757e-05
0.23425,-7.517381374355596e-05
0.2345,-7.522304039555178e-05
0.23475,-7.603180066725165e-05
0.235,-7.6990551157332e-05
0.23525,-7.767021621495011e-05
0.2355,-7.721646809129683e-05
0.23575,-7.527311018205465e-05
0.236,-7.117568376285788e-05
0.23625,-6.492865752217339e-05
0.2365,-5.6262595213472556e-05
0.23675,-4.549717848516422e-05
0.237,-3.281325989939546e-05
0.23725,-1.8870334367529846e-05
0.2375,-4.112050081285592e-06
0.23775,1.0645980856731356e-05
0.238,2.5097376993364207e-05
0.23825,3.871250202947702e-05
0.2385,5.1549275309584914e-05
0.23875,6.332661918144346e-05
0.239,7.45333783091441e-05
0.23925,8.544880632512898e-05
0.2395,9.672109638167594e-05
0.23975,0.00010851957140311533
0.24,0.00012061793913121363
0.24025,0.00013293784631552216
0.2405,0.00014530986729505385
0.24075,0.00015670603829883055
0.241,0.00016737135605015473
0.24125,0.00017528280159198647
0.2415,0.00018082875362568165
0.24175,0.00018307096109804096
0.242,0.00018210994467370912
0.24225,0.00017738377931911082
0.2425,0.00016979679842805783
0.24275,0.00016007153818936828
0.243,0.00014888905345160222
0.24325,0.00013663851785962748
0.2435,0.00012469598972655248
0.24375,0.00011334163622045112
0.244,0.00010260137920715132
0.24425,9.267432873188775e-05
0.2445,8.312369430753061e-05
0.24475,7.387220167519525e-05
0.245,6.400030236835691e-05
0.24525,5.323616106333566e-05
0.2455,4.0995052792935635e-05
0.24575,2.8059445182353895e-05
0.246,1.4069723819117236e-05
0.24625,-2.3030679050109284e-07
0.2465,-1.4181406578054085e-05
0.24675,-2.6808949030603606e-05
0.247,-3.7495183145003265e-05
0.24725,-4.555960381494166e-05
0.2475,-5.094396458934029e-05
0.24775,-5.349009074409551e-05
0.248,-5.380925822929655e-05
0.24825,-5.233444785176541e-05
0.2485,-5.0014586224501857e-05
0.24875,-4.749196481287084e-05
0.249,-4.5648708010298454e-05
0.24925,-4.458426470726843e-05
0.2495,-4.492088259619051e-05
0.24975,-4.634370971466305e-05
0.25,-4.814189229080384e-05
0.25025,-5.0367258570079465e-05
0.2505,-5.169957877030773e-05
0.25075,-5.1999554768214414e-05
0.251,-5.1051321628946264e-05
0.25125,-4.863072801142693e-05
0.2515,-4.464989927697647e-05
0.25175,-4.021548044280086e-05
0.252,-3.5415234435893725e-05
0.25225,-3.130695618118067e-05
0.2525,-2.875187610538192e-05
0.25275,-2.755657264161197e-05
0.253,-2.8522391027738362e-05
0.25325,-3.1085396495790964e-05
0.2535,-3.50810080967717e-05
0.25375,-3.9267608621475593e-05
0.254,-4.291143632368316e-05
0.25425,-4.5171254816183404e-05
0.2545,-4.527924417114968e-05
0.25475,-4.313230969894861e-05
0.255,-3.816240934967824e-05
0.25525,-3.0816334522455395e-05
0.2555,-2.1958222319027217e-05
0.25575,-1.2081558558376126e-05
0.256,-2.0191691635102515e-06
0.25625,7.3806826240304025e-06
0.2565,1.532856148456699e-05
0.25675,2.1606765131172646e-05
0.257,2.6101900829074844e-05
0.25725,2.929836907225676e-05
0.2575,3.167613852256488e-05
0.25775,3.41396142683913e-05
0.258,3.7101731654796844e-05
0.25825,4.130125837762052e-05
0.2585,4.654844116864403e-05
0.25875,5.328070163249373e-05
0.259,6.033474597913781e-05
0.25925,6.682591972365113e-05
0.2595,7.235801853769774e-05
0.25975,7.524966696615342e-05
0.26,7.47233543619712e-05
0.26025,7.060904280820613e-05
0.2605,6.247142055542766e-05
0.26075,5.106802154069101e-05
0.261,3.78184819432368e-05
0.26125,2.379332980019514e-05
0.2615,1.0269877515439364e-05
0.26175,-2.220693014075487e-06
0.262,-1.2163312007620642e-05
0.26225,-1.9686352675169915e-05
0.2625,-2.451253624853309e-05
0.26275,-2.7240809427311815e-05
0.263,-2.8436091302079795e-05
0.26325,-2.890428849759004e-05
0.2635,-2.9365691363699262e-05
0.26375,-3.0422938511778005e-05
0.264,-3.266739957324574e-05
0.26425,-3.707106239224079e-05
0.2645,-4.4004726404098535e-05
0.26475,-5.3380269351051493e-05
0.265,-6.470656899942829e-05
0.26525,-7.726311701232131e-05
0.2655,-9.059940955340622e-05
0.26575,-0.0001003838962476536
0.266,-0.00010137665137654194
0.26625,-8.793293467350427e-05
0.2665,-5.711369155456842e-05
0.26675,-6.705356537665985e-06
0.267,6.462436581081924e-05
0.26725,0.00015828979923992624
0.2675,0.00026708080083474644
0.26775,0.00036377491644111937
0.268,0.00043224328639259997
0.26825,0.0004583910657382323
0.2685,0.000439440583340537
0.26875,0.00037702887409593686
0.269,0.0002791068884116134
0.26925,0.00016948834439006673
0.2695,6.50183889695218e-05
0.26975,-2.162604115554989e-05
0.27,-8.361620218260801e-05
0.27025,-0.00011862656247483212
0.2705,-0.0001295571667946836
0.27075,-0.00012400220216531943
0.271,-0.00010896653226443594
0.27125,-9.14412666413288e-05
0.2715,-7.597684165603553e-05
0.27175,-6.684905551198507e-05
0.272,-6.392946182359651e-05
0.27225,-6.619343466991623e-05
0.2725,-7.04502366713343e-05
0.27275,-7.452880885313372e-05
0.273,-7.719118589792986e-05
0.27325,-7.75961040244751e-05
0.2735,-7.53750952020742e-05
0.27375,-7.07292685519798e-05
0.274,-6.408134214435014e-05
0.27425,-5.624532107877699e-05
0.2745,-4.794342129080776e-05
0.27475,-3.973620380788189e-05
0.275,-3.166269552740167e-05
0.27525,-2.3760998900417984e-05
0.2755,-1.5576855469030976e-05
0.27575,-6.527293362034978e-06
0.276,3.907159281107611e-06
0.27625,1.6471583868321792e-05
0.2765,3.1366212623568096e-05
0.27675,4.8298469661416865e-05
0.277,6.772192444993687e-05
0.27725,8.832962276724286e-05
0.2775,0.00010904427403986958
0.27775,0.0001292753259724974
0.278,0.00014781014576692062
0.27825,0.00016343312009198737
0.2785,0.00017553203866932425
0.27875,0.0001843974173815551
0.279,0.00018933524324170467
0.27925,0.0001915462971446345
0.2795,0.0001915472601806661
0.27975,0.00018969795789153596
0.28,0.00018745571486949905
0.28025,0.00018474730851382345
0.2805,0.00018210694313356449
0.28075,0.00017934260523615514
0.281,0.00017591318678794143
0.28125,0.00017122130186401219
0.2815,0.00016518742888339924
0.28175,0.00015658122141995592
0.282,0.0001459199899207053
0.28225,0.0001325213827014849
0.2825,0.00011633674331771072
0.28275,9.890204442854329e-05
0.283,8.03741024551936e-05
0.28325,6.175973272244879e-05
0.2835,4.4510595482513674e-05
0.28375,2.851279556171264e-05
0.284,1.4973435327523633e-05
0.28425,3.738278768638648e-06
0.2845,-4.7160750562987e-06
0.28475,-1.1345374126122105e-05
0.285,-1.6234461055201898e-05
0.28525,-2.034217958354817e-05
0.2855,-2.396266702561188e-05
0.28575,-2.7787968754651615e-05
0.286,-3.1735217979967444e-05
0.28625,-3.601087223398663e-05
0.2865,-4.00107130105688e-05
0.28675,-4.3495552755243307e-05
0.287,-4.567399565322426e-05
0.28725,-4.625986464864349e-05
0.2875,-4.4728942750010974e-05
0.28775,-4.120267642218177e-05
0.288,-3.565687439435443e-05
0.28825,-2.8748753906375252e-05
0.2885,-2.093885834425403e-05
0.28875,-1.3234097102062812e-05
0.289,-6.051174245079747e-06
0.28925,-2.7887744691382734e-07
0.2895,3.966639576463092e-06
0.28975,6.363182881044656e-06
0.29,7.210237501005753e-06
0.29025,6.7354187855278555e-06
0.2905,5.625699760585601e-06
0.29075,4.223771505733653e-06
0.291,3.229660814084718e-06
0.29125,2.701269744609582e-06
0.2915,2.8932750888072327e-06
0.29175,3.5068658294066625e-06
0.292,4.379489644762064e-06
0.29225,4.888642523997301e-06
0.2925,4.746131648119525e-06
0.29275,3.36593106096378e-06
0.293,8.122776634915727e-07
0.29325,-3.1928691712354866e-06
0.2935,-8.030751419890941e-06
0.29375,-1.3481895431723046e-05
0.294,-1.86187913034502e-05
0.29425,-2.2936654668969675e-05
0.2945,-2.5399674194080255e-05
0.29475,-2.5665343807641718e-05
0.295,-2.3115379622287e-05
0.29525,-1.8011980535431293e-05
0.2955,-1.0220341333109691e-05
0.29575,-6.844750449914864e-07
0.296,1.0566758824773084e-05
0.29625,2.2185250676507535e-05
0.2965,3.411767424271646e-05
0.29675,4.5181326002354594e-05
0.297,5.542625008650187e-05
0.29725,6.425080808533938e-05
0.2975,7.139948175063041e-05
0.29775,7.711516922222476e-05
0.298,8.098104032833052e-05
0.29825,8.36148965376436e-05
0.2985,8.529213466079999e-05
0.29875,8.539251530084041e-05
0.299,8.459313207254997e-05
0.29925,8.258111174497731e-05
0.2995,7.924544222346021e-05
0.29975,7.465445411317012e-05
0.3,6.866705773088236e-05
0.30025,6.114552464815592e-05
0.3005,5.261432367836153e-05
0.30075,4.3722689216258906e-05
0.301,3.4309463003530284e-05
0.30125,2.5225396590872142e-05
0.3015,1.6682583197100076e-05
0.30175,9.12301539559002e-06
0.302,2.4608350740703056e-06
0.30225,-3.2694038533099644e-06
0.3025,-8.516004009667746e-06
0.30275,-1.3745452015785629e-05
0.303,-2.0022857823380572e-05
0.30325,-2.9057262521902064e-05
0.3035,-4.12865886990627e-05
0.30375,-5.599099864072722e-05
0.304,-7.084354621933959e-05
0.30425,-8.162739599108112e-05
0.3045,-8.412048950222108e-05
0.30475,-7.201291925095964e-05
0.305,-3.8503022334415385e-05
0.30525,1.7940732784532497e-05
0.3055,9.67246012453147e-05
0.30575,0.0001911192637106273
0.306,0.0002926589907614296
0.30625,0.000382270151365803
0.3065,0.0004381250813719188
0.30675,0.000447377951932857
0.307,0.0004059627731047182
0.30725,0.00032510621323949315
0.3075,0.00022203546312161957
0.30775,0.00011683131391775765
0.308,2.4158592137787433e-05
0.30825,-4.665013336892378e-05
0.3085,-9.20871664988941e-05
0.30875,-0.0001112357015767829
0.309,-0.00011059499324939121
0.30925,-9.839031862670058e-05
0.3095,-7.990492269412483e-05
0.30975,-5.975923886894647e-05
0.31,-4.153095922009255e-05
0.31025,-2.7568462915019018e-05
0.3105,-1.8243332375146067e-05
0.31075,-1.2983217716710292e-05
0.311,-1.0017016511970216e-05
0.31125,-8.432709661131205e-06
0.3115,-7.43310489160314e-06
0.31175,-6.51949681360883e-06
0.312,-5.21056049408221e-06
0.31225,-3.329177849729011e-06
0.3125,-7.517895795617075e-07
0.31275,2.3688682321573803e-06
0.313,5.983905829624325e-06
0.31325,1.0152769688689805e-05
0.3135,1.493837898708609e-05
0.31375,2.054499249734276e-05
0.314,2.6993778642145312e-05
0.31425,3.4052192331121995e-05
0.3145,4.222146276544596e-05
0.31475,5.1357666123949826e-05
0.315,6.183971081325154e-05
0.31525,7.320004240716025e-05
0.3155,8.559876490554876e-05
0.31575,9.871037023797638e-05
0.316,0.00011187381962385887
0.31625,0.00012555571440142342
0.3165,0.00013871278357078937
0.31675,0.000151103050418084
0.317,0.00016263687490616923
0.31725,0.0001729557506837378
0.3175,0.0001819459391520012
0.31775,0.0001895270932614165
0.318,0.00019627645906874212
0.31825,0.00020195476228515406
0.3185,0.00020618600001850567
0.31875,0.00020915505131524807
0.319,0.0002111058564240043
0.31925,0.00021094481385979715
0.3195,0.0002096564510607377
0.31975,0.0002060190226297396
0.32,0.00020009498408362313
0.32025,0.00019190050979415326
0.3205,0.0001816840935368439
0.32075,0.00016931714268622695
0.321,0.00015506224789418925
0.32125,0.000139421325009678
0.3215,0.00012312418300198505
0.32175,0.00010660432099477045
0.322,9.025503994342858e-05
0.32225,7.476244274424516e-05
0.3225,6.041166695442978e-05
0.32275,4.7656363850731234e-05
0.323,3.60080744071667e-05
0.32325,2.516093990581913e-05
0.3235,1.545094878336526e-05
0.32375,6.3893032736124365e-06
0.324,-2.3601944621894583e-06
0.32425,-1.0653945435066242e-05
0.3245,-1.852093229523195e-05
0.32475,-2.571674217426752e-05
0.325,-3.194832755593937e-05
0.32525,-3.66966841580802e-05
0.3255,-3.9582493987875306e-05
0.32575,-4.024995998395975e-05
0.326,-3.863049838374549e-05
0.32625,-3.4729420930641e-05
0.3265,-2.8850502631340578e-05
0.32675,-2.1487142403374794e-05
0.327,-1.3273214118807022e-05
0.32725,-4.866420960078461e-06
0.3275,3.088325349799996e-06
0.32775,1.0126463020891318e-05
0.328,1.6043577876357557e-05
0.32825,2.0656735650814242e-05
0.3285,2.4298570219692116e-05
0.32875,2.725973917299062e-05
0.329,2.9939211629863244e-05
0.32925,3.2736144836542045e-05
0.3295,3.601943879117427e-05
0.32975,3.978422523181368e-05
0.33,4.388887980396114e-05
0.33025,4.799676641788222e-05
0.3305,5.1579748628471404e-05
0.33075,5.400190384211103e-05
0.331,5.4784004543966e-05
0.33125,5.348675507294096e-05
0.3315,5.0063136390420386e-05
0.33175,4.462125549580139e-05
0.332,3.775327213614056e-05
0.33225,3.011652785355227e-05
0.3325,2.2699899439504847e-05
0.33275,1.6399089133906748e-05
0.333,1.2170560402231336e-05
0.33325,1.0414823438773133e-05
0.3335,1.1680085851730352e-05
0.33375,1.5397051438572746e-05
0.334,2.1241052501514633e-05
0.33425,2.8678984043791458e-05
0.3345,3.677785332517149e-05
0.33475,4.467928332746454e-05
0.335,5.122880769583024e-05
0.33525,5.6775072276385985e-05
0.3355,6.048246022226975e-05
0.33575,6.244873064922023e-05
0.336,6.357658268677218e-05
0.33625,6.409910329407965e-05
0.3365,6.495152536427541e-05
0.33675,6.568337665156854e-05
0.337,6.744190884212938e-05
0.33725,7.02048285634053e-05
0.3375,7.30680145209823e-05
0.33775,7.594781097033694e-05
0.338,7.841112351284572e-05
0.33825,7.999325468341408e-05
0.3385,7.931020339139361e-05
0.33875,7.733101357657195e-05
0.339,7.367257913080234e-05
0.33925,6.843556465857193e-05
0.3395,6.287406976518998e-05
0.33975,5.731604838063374e-05
0.34,5.2541512913932366e-05
0.34025,4.916478796927593e-05
0.3405,4.74286332662082e-05
0.34075,4.729563932137768e-05
0.341,4.7719988342756765e-05
0.34125,4.6822854755087856e-05
0.3415,4.304691844415076e-05
0.34175,3.521825588089994e-05
0.342,2.284611514917184e-05
0.34225,6.517989994490464e-06
0.3425,-1.0036709677393698e-05
0.34275,-2.112453032970844e-05
0.343,-2.1459754549224987e-05
0.34325,-5.599259171348312e-06
0.3435,3.2160885343099794e-05
0.34375,9.469733362446275e-05
0.344,0.0001780763764976029
0.34425,0.00027008359903813166
0.3445,0.00035797516247996445
0.34475,0.0004249387463484339
0.345,0.0004498551770967534
0.34525,0.00042134917179036926
0.3455,0.00035036321884648533
0.34575,0.000253557821242897
0.346,0.0001452814647525052
0.34625,4.114263370499648e-05
0.3465,-4.451497164617242e-05
0.34675,-0.00010500005958018863
0.347,-0.00014059334345721444
0.34725,-0.00015307893257664068
0.3475,-0.0001460656301040234
0.34775,-0.0001256800476274126
0.348,-9.885948761112717e-05
0.34825,-7.086680481160552e-05
0.3485,-4.4749467883235236e-05
0.34875,-2.203946921005698e-05
0.349,-3.889026748881946e-06
0.34925,1.0379679319717132e-05
0.3495,2.143946332439594e-05
0.34975,2.9473495370581507e-05
0.35,3.47368302335038e-05
0.35025,3.793253395357264e-05
0.3505,3.998967304596981e-05
0.35075,4.188792686302047e-05
0.351,4.4458030010479785e-05
0.35125,4.861827953177552e-05
0.3515,5.478373796453479e-05
0.35175,6.308600944806754e-05
0.352,7.348487826557987e-05
0.35225,8.468205007351847e-05
0.3525,9.627055452324183e-05
0.35275,0.0001067445010733914
0.353,0.00011618609549718666
0.35325,0.00012300372319896838
0.3535,0.00012748702777745584
0.35375,0.0001302634868005586
0.354,0.00013138208468803717
0.35425,0.0001321667543373849
0.3545,0.00013350150200195472
0.35475,0.00013583811289980235
0.355,0.00014039738129714146
0.35525,0.0001475376030768189
0.3555,0.00015645838279146131
0.35575,0.00016685153248275071
0.356,0.00017763347065611452
0.35625,0.00018756039218236503
0.3565,0.00019516935700543569
0.35675,0.00019972789637664996
0.357,0.00020057768667022753
0.35725,0.00019775772485990247
0.3575,0.000191400409818939
0.35775,0.00018215722517646906
0.358,0.00017187457750010484
0.35825,0.00016117001061043286
0.3585,0.00015159430208537338
0.35875,0.00014347672096714752
0.359,0.00013729488220379316
0.35925,0.00013318736887314096
0.3595,0.00012976938419533127
0.35975,0.0001267904691396116
0.36,0.0001228795921637311
0.36025,0.00011771138605208209
0.3605,0.00011007007806388142
0.36075,0.00010004176022560283
0.361,8.754930059692432e-05
0.36125,7.39374226241497e-05
0.3615,5.9206836741932634e-05
0.36175,4.5244477595170296e-05
0.362,3.289473045050011e-05
0.36225,2.321364588121899e-05
0.3625,1.6439327476700525e-05
0.36275,1.2593286238640454e-05
0.363,1.1451628327179605e-05
0.36325,1.2038587806611955e-05
0.3635,1.3327321319252299e-05
0.36375,1.4347272324687482e-05
0.364,1.41934904061319e-05
0.36425,1.2348941986907294e-05
0.3645,8.726961168214251e-06
0.36475,3.6216020655051615e-06
0.365,-2.2076411416670417e-06
0.36525,-7.773524614707453e-06
0.3655,-1.2140179352951763e-05
0.36575,-1.438879070532447e-05
0.366,-1.3990907640674092e-05
0.36625,-1.0753715718134293e-05
0.3665,-5.0232296913978165e-06
0.36675,2.5215510676484602e-06
0.367,1.0851512317191003e-05
0.36725,1.8921342521902023e-05
0.3675,2.5664243560616466e-05
0.36775,3.0345656157443492e-05
0.368,3.2556942629753284e-05
0.36825,3.2398700921712324e-05
0.3685,3.0349015702928802e-05
0.36875,2.7260502179506363e-05
0.369,2.4125691022979032e-05
0.36925,2.192763897309913e-05
0.3695,2.1459198149389467e-05
0.36975,2.3186067027013827e-05
0.37,2.7123250344834175e-05
0.37025,3.285839207745608e-05
0.3705,3.968533106173806e-05
0.37075,4.6688244136971894e-05
0.371,5.287659151405554e-05
0.37125,5.762601075146488e-05
0.3715,6.0655645256483845e-05
0.37175,6.136024349976681e-05
0.372,6.043959990303819e-05
0.37225,5.7930927635775875e-05
0.3725,5.4686131592411004e-05
0.37275,5.1647544798666766e-05
0.373,4.978544053123047e-05
0.37325,5.013418005378052e-05
0.3735,5.173466724121427e-05
0.37375,5.594150836530112e-05
0.374,6.107203886134994e-05
0.37425,6.690075167615368e-05
0.3745,7.249406782492622e-05
0.37475,7.634741233969756e-05
0.375,7.794015413561697e-05
0.37525,7.720635635738167e-05
0.3755,7.31884379651521e-05
0.37575,6.724838065755976e-05
0.376,6.011418827139081e-05
0.37625,5.26910340313909e-05
0.3765,4.6502828544948e-05
0.37675,4.207675138195024e-05
0.377,3.984638809344343e-05
0.37725,4.0201074886796e-05
0.3775,4.268559790750394e-05
0.37775,4.6668252464216024e-05
0.378,5.1386908771544696e-05
0.37825,5.65368451001856e-05
0.3785,6.089760753336456e-05
0.37875,6.290759128291067e-05
0.379,6.172708116319091e-05
0.37925,5.684803227629748e-05
0.3795,4.851968411436478e-05
0.37975,3.7098395502687996e-05
0.38,2.3601629876337035e-05
0.38025,8.458309727385311e-06
0.3805,-6.901730177550361e-06
0.38075,-2.258667146220387e-05
0.381,-3.445092243943496e-05
0.38125,-3.3083232683159797e-05
0.3815,-1.2563976612442993e-05
0.38175,3.0418763909029067e-05
0.382,9.419379647155213e-05
0.38225,0.00017520677737444435
0.3825,0.00026506152843435295
0.38275,0.00035497814989724765
0.383,0.0004240119437272749
0.38325,0.0004569647406069473
0.3835,0.00044327437609463846
0.38375,0.0003787685031862728
0.384,0.00027879465914081204
0.38425,0.00016457369760454645
0.3845,5.548046665407166e-05
0.38475,-3.708118950470385e-05
0.385,-0.00010505236640692112
0.38525,-0.00014586953933692378
0.3855,-0.00016205847864940196
0.38575,-0.00015807791358249943
0.386,-0.0001414938437871996
0.38625,-0.00011931702428803309
0.3865,-9.687909852410595e-05
0.38675,-7.802410641194077e-05
0.387,-6.31762952688622e-05
0.38725,-5.1947590344342654e-05
0.3875,-4.2316625577515983e-05
0.38775,-3.300921586167444e-05
0.388,-2.2916050401090313e-05
0.38825,-1.1702314665241623e-05
0.3885,9.025521359582382e-07
0.38875,1.4521527221625639e-05
0.389,2.8938458303733126e-05
0.38925,4.325847019667813e-05
0.3895,5.7139642437184535e-05
0.38975,6.979563218598412e-05
0.39,8.146319501767995e-05
0.39025,9.189070488996818e-05
0.3905,0.00010178406043106227
0.39075,0.00011131145730121102
0.391,0.0001206746848236056
0.39125,0.0001300810062568512
0.3915,0.00013980562452029616
0.39175,0.0001493315808081294
0.392,0.00015866348506913495
0.39225,0.00016735571093866303
0.3925,0.0001747528653959539
0.39275,0.00018057812093159534
0.393,0.00018432726762921406
0.39325,0.00018559322126403353
0.3935,0.0001847898964593297
0.39375,0.0001816956809374443
0.394,0.00017697664755902048
0.39425,0.00017059881976645247
0.3945,0.00016397058954873602
0.39475,0.00015698700045555625
0.395,0.00015009152786888221
0.39525,0.00014384596670196647
0.3955,0.00013824847984304962
0.39575,0.00013310542134150873
0.396,0.00012784931551573298
0.39625,0.00012251139861294553
0.3965,0.00011669428329104881
0.39675,0.00011114050481472534
0.397,0.00010504559261564374
0.39725,9.902672530567985e-05
0.3975,9.24309888492297e-05
0.39775,8.659569692694151e-05
0.398,8.089060159009402e-05
0.39825,7.5834611034424e-05
0.3985,7.167173113906887e-05
0.39875,6.84370381054253e-05
0.399,6.5434065985503e-05
0.39925,6.292179240726563e-05
0.3995,6.090120238208733e-05
0.39975,5.910856135927956e-05
0.4,5.6903423246680054e-05
0.40025,5.450370594009391e-05
0.4005,5.2280551929983414e-05
0.40075,4.984094324232932e-05
0.401,4.7342878371925984e-05
0.40125,4.4918074513981674e-05
0.4015,4.270528086093863e-05
0.40175,4.073003334781576e-05
0.402,3.899063896543707e-05
0.40225,3.745849470631486e-05
0.4025,3.590876521314277e-05
0.40275,3.424776861203999e-05
0.403,3.219719392552239e-05
0.40325,2.9740551779187692e-05
0.4035,2.6667761851898195e-05
0.40375,2.306527151370619e-05
0.404,1.9019622076240535e-05
0.40425,1.4712269313585592e-05
0.4045,1.0320343950093892e-05
0.40475,6.024676676830382e-06
0.405,1.997162296365868e-06
0.40525,-1.6483862365072554e-06
0.4055,-4.917089388804066e-06
0.40575,-7.85571264062699e-06
0.406,-1.059382575616168e-05
0.40625,-1.3234083321810012e-05
0.4065,-1.5927999312120194e-05
0.40675,-1.8696880200289315e-05
0.407,-2.1537590553743054e-05
0.40725,-2.427005376106059e-05
0.4075,-2.672040601138903e-05
0.40775,-2.854054134947134e-05
0.408,-2.9550827871196956e-05
0.40825,-2.9388727029221586e-05
0.4085,-2.803823727678054e-05
0.40875,-2.5259724755650676e-05
0.409,-2.130462366985566e-05
0.40925,-1.618170148721783e-05
0.4095,-1.026577598827633e-05
0.40975,-3.6060798570882585e-06
0.41,3.4484765267738157e-06
0.41025,1.0864803579776586e-05
0.4105,1.83680010794206e-05
0.41075,2.626183793097239e-05
0.411,3.427832281562905e-05
0.41125,4.2821847456072e-05
0.4115,5.2135301173391125e-05
0.41175,6.219525498615182e-05
0.412,7.206207070199713e-05
0.41225,8.242313585508531e-05
0.4125,9.199208417219471e-05
0.41275,0.00010043689326127564
0.413,0.00010697278247300937
0.41325,0.00011071200502387114
0.4135,0.00011166419209743264
0.41375,0.00010990311233043804
0.414,0.0001049226457920366
0.41425,9.725028645754942e-05
0.4145,8.7279021449537e-05
0.41475,7.622461646309132e-05
0.415,6.48379704311927e-05
0.41525,5.42278254928007e-05
0.4155,4.4806479723086184e-05
0.41575,3.677953618694093e-05
0.416,3.0820637127501697e-05
0.41625,2.6606105587803585e-05
0.4165,2.3861863939040168e-05
0.41675,2.1973792951317534e-05
0.417,2.0339456708304804e-05
0.41725,1.830361778437113e-05
0.4175,1.5405477074520885e-05
0.41775,1.1172568288645894e-05
0.418,5.532602535404812e-06
0.41825,-2.2081115721939906e-06
0.4185,-1.3013839893556776e-05
0.41875,-2.6365121992800677e-05
0.419,-4.084855732136628e-05
0.41925,-5.3757623434887326e-05
0.4195,-6.199411701067941e-05
0.41975,-6.052379212387408e-05
0.42,-4.372906021310312e-05
0.42025,-6.968747056938147e-06
0.4205,5.062793540919432e-05
0.42075,0.00012747493301144288
0.421,0.00021790996129597537
0.42125,0.00031318107624728924
0.4215,0.0003911859868923432
0.42175,0.0004345335123506613
0.422,0.0004342904918633176
0.42225,0.00038437809604733024
0.4225,0.0002949278422686179
0.42275,0.00018512846834543725
0.423,7.511498163478049e-05
0.42325,-2.122670636835558e-05
0.4235,-9.524677216213849e-05
0.42375,-0.0001425844065870982
0.424,-0.00016525517457856423
0.42425,-0.00016844356464327178
0.4245,-0.00015784988002332052
0.42475,-0.00013910730748640775
0.425,-0.00011831993509402362
0.42525,-0.00010054042149535873
0.4255,-8.719843238770683e-05
0.42575,-7.752696248571183e-05
0.426,-6.929716703950397e-05
0.42625,-6.130588974681951e-05
0.4265,-5.200920291326673e-05
0.42675,-4.042704509036247e-05
0.427,-2.656457812243093e-05
0.42725,-1.1335146317513224e-05
0.4275,4.543251440511912e-06
0.42775,1.9905306585973402e-05
0.428,3.407734968889756e-05
0.42825,4.628329005248542e-05
0.4285,5.650815602758497e-05
0.42875,6.474791877433261e-05
0.429,7.184404289314135e-05
0.42925,7.826213839569095e-05
0.4295,8.53168185166647e-05
0.42975,9.303241859174018e-05
0.43,0.00010253444810240275
0.43025,0.00011346382390294056
0.4305,0.0001254526530381153
0.43075,0.0001378322941859384
0.431,0.0001493122705237807
0.43125,0.00015905021388602927
0.4315,0.00016604933240627515
0.43175,0.00016952812338528886
0.432,0.00016903579804648108
0.43225,0.00016485007348552265
0.4325,0.00015724122723931625
0.43275,0.00014806184906407204
0.433,0.00013780553888146662
0.43325,0.00012796264096257264
0.4335,0.00011901673355226169
0.43375,0.00011180633317193602
0.434,0.00010673789800240134
0.43425,0.00010293978999855381
0.4345,0.0001000295642127449
0.43475,9.669528965377783e-05
0.435,9.226983025954729e-05
0.43525,8.549075398124043e-05
0.4355,7.688465321528655e-05
0.43575,6.586526304448659e-05
0.436,5.296584840017858e-05
0.43625,3.919608768486464e-05
0.4365,2.6253028562949522e-05
0.43675,1.5465172517955117e-05
0.437,7.412728930320942e-06
0.43725,3.3156633421677605e-06
0.4375,3.2609729777140394e-06
0.43775,7.249408625198533e-06
0.438,1.4205416211190257e-05
0.43825,2.2641213344881074e-05
0.4385,3.167150488715732e-05
0.43875,3.984124490997962e-05
0.439,4.604232688813909e-05
0.43925,4.969359031652331e-05
0.4395,5.073491273704088e-05
0.43975,4.9603504121616094e-05
0.44,4.699336427136479e-05
0.44025,4.396636689522303e-05
0.4405,4.153757651096147e-05
0.44075,4.049689397617478e-05
0.441,4.124430944637981e-05
0.44125,4.371302218307009e-05
0.4415,4.72401524264796e-05
0.44175,5.088402757813071e-05
0.442,5.330885733887726e-05
0.44225,5.3351830000296124e-05
0.4425,4.99086718897491e-05
0.44275,4.2473425048865894e-05
0.443,3.0734352429495534e-05
0.44325,1.5668718374411972e-05
0.4435,-1.7817631239353274e-06
0.44375,-2.0666613735353363e-05
0.444,-3.8753729694520525e-05
0.44425,-5.535595337407397e-05
0.4445,-6.902600079416599e-05
0.44475,-7.905323158183633e-05
0.445,-8.590080164019989e-05
0.44525,-8.9834430848298e-05
0.4455,-9.214660421545898e-05
0.44575,-9.342801902376434e-05
0.446,-9.518886326178501e-05
0.44625,-9.803618248556635e-05
0.4465,-0.00010224845278535035
0.44675,-0.00010779004016673913
0.447,-0.00011387549464609843
0.44725,-0.00011922519709481689
0.4475,-0.00012247601272261124
0.44775,-0.00012216491150858694
0.448,-0.00011726126163899381
0.44825,-0.00010705932272765908
0.4485,-9.154700842621763e-05
0.44875,-7.132225316126016e-05
0.449,-4.7485878404808774e-05
0.44925,-2.1488843719738536e-05
0.4495,4.85778195806948e-06
0.44975,2.9920354163874122e-05
0.45,5.226116366139634e-05
0.45025,7.115337434861287e-05
0.4505,8.624704447053845e-05
0.45075,9.826404097692114e-05
0.451,0.00010736966657321132
0.45125,0.00011494277023803389
0.4515,0.00012179186400706714
0.45175,0.00012794572899700113
0.452,0.00013418948894050944
0.45225,0.00014012868138092965
0.4525,0.00014482987203800443
0.45275,0.00014757365518249665
0.453,0.00014718170404921408
0.45325,0.00014257053260843572
0.4535,0.00013345262723473658
0.45375,0.00011893681927781677
0.454,9.995956797832526e-05
0.45425,7.757145391632e-05
0.4545,5.3104002924724514e-05
0.45475,2.852409272409359e-05
0.455,5.27804252728974e-06
0.45525,-1.4802153157425246e-05
0.4555,-3.093745378546002e-05
0.45575,-4.257940840380091e-05
0.456,-5.051911967827647e-05
0.45625,-5.556822905882042e-05
0.4565,-5.980765916963002e-05
0.45675,-6.477326076105768e-05
0.457,-7.311139190872722e-05
0.45725,-8.561057931295861e-05
0.4575,-0.0001036785308776321
0.45775,-0.00012557873823779852
0.458,-0.00014828974517045091
0.45825,-0.0001670622418718834
0.4585,-0.00017554910029818582
0.45875,-0.00016666182171075136
0.459,-0.00013585956010834659
0.45925,-7.735427851528632e-05
0.4595,8.157409968300281e-06
0.45975,0.00011423030179227784
0.46,0.0002283879359376168
0.46025,0.00033188494885693265
0.4605,0.00040338841238715976
0.46075,0.00042783041837119747
0.461,0.0004004690970221862
0.46125,0.0003274754640897519
0.4615,0.00022556448345266078
0.46175,0.00011751591738001886
0.462,1.9242607321618736e-05
0.46225,-5.885300493595734e-05
0.4625,-0.00011039032950461978
0.46275,-0.00013450718893021703
0.463,-0.00013482834869058146
0.46325,-0.00011697304962815709
0.4635,-8.903396791631062e-05
0.46375,-5.845945166113206e-05
0.464,-3.051853851653316e-05
0.46425,-9.95283095787333e-06
0.4645,2.88706582511639e-06
0.46475,8.284311452117686e-06
0.465,7.793495543447183e-06
0.46525,3.0215088707662387e-06
0.4655,-4.18126378146239e-06
0.46575,-1.1903043637727205e-05
0.466,-1.8344777557043315e-05
0.46625,-2.21682258205986e-05
0.4665,-2.2525384152011483e-05
0.46675,-1.9370066848197922e-05
0.467,-1.3229844742684507e-05
0.46725,-5.160738142040412e-06
0.4675,3.8137863533934317e-06
0.46775,1.2642967067789098e-05
0.468,2.0257695689886134e-05
0.46825,2.6159781102068772e-05
0.4685,3.0071307234917195e-05
0.46875,3.2652981274490664e-05
0.469,3.404403777246083e-05
0.46925,3.615580296422653e-05
0.4695,3.935305488439368e-05
0.46975,4.4841066503437834e-05
0.47,5.3215001442340155e-05
0.47025,6.424831409936497e-05
0.4705,7.833164087980407e-05
0.47075,9.345245458581147e-05
0.471,0.0001089336202631881
0.47125,0.00012304855630116142
0.4715,0.00013464824783304
0.47175,0.00014232530398634223
0.472,0.00014592903577498193
0.47225,0.0001453228426071747
0.4725,0.0001408376062504959
0.47275,0.00013392222875239254
0.473,0.00012527771174462176
0.47325,0.00011597702175784901
0.4735,0.00010793842883547925
0.47375,0.00010095788018948769
0.474,9.586150958908004e-05
0.47425,9.234468429805548e-05
0.4745,8.976876740033441e-05
0.47475,8.787804725866245e-05
0.475,8.530109920329608e-05
0.47525,8.133512924566547e-05
0.4755,7.561624352785534e-05
0.47575,6.76596349780551e-05
0.476,5.8508598992849505e-05
0.47625,4.82540070325866e-05
0.4765,3.7610849644209786e-05
0.47675,2.8212634897785235e-05
0.477,2.0632827409239863e-05
0.47725,1.5537245005068917e-05
0.4775,1.3180495739757464e-05
0.47775,1.3460433769682555e-05
0.478,1.573148880871921e-05
0.47825,1.9125865080269203e-05
0.4785,2.2521282670396594e-05
0.47875,2.500775157083752e-05
0.479,2.571486597300486e-05
0.47925,2.423548249800086e-05
0.4795,2.0381488708559566e-05
0.47975,1.4697125765955823e-05
0.48,7.551606044015163e-06
0.48025,2.191680064616555e-08
0.4805,-7.132578399447966e-06
0.48075,-1.3180838831173168e-05
0.481,-1.7689449018957527e-05
0.48125,-2.0830932139299794e-05
0.4815,-2.2830217028264697e-05
0.48175,-2.3839404935704844e-05
0.482,-2.5264698624532446e-05
0.48225,-2.7693304813332558e-05
0.4825,-3.212759389296126e-05
0.48275,-3.826093506571049e-05
0.483,-4.678568923138859e-05
0.48325,-5.675612273249654e-05
0.4835,-6.84752947072152e-05
0.48375,-8.02846326206482e-05
0.484,-9.190406017120601e-05
0.48425,-0.00010183108767645522
0.4845,-0.00010957318060629448
0.48475,-0.0001143336957478216
0.485,-0.00011678791902981361
0.48525,-0.00011627490514103431
0.4855,-0.00011363568969219618
0.48575,-0.00010947578714126687
0.486,-0.00010468522047486356
0.48625,-9.892430274408741e-05
0.4865,-9.308091735136956e-05
0.48675,-8.720861013193348e-05
0.487,-8.052204575408821e-05
0.48725,-7.303528173104573e-05
0.4875,-6.378441329968877e-05
0.48775,-5.247803097275645e-05
0.488,-3.8520718520124e-05
0.48825,-2.196817179359718e-05
0.4885,-2.755397222786531e-06
0.48875,1.8483125460010134e-05
0.489,4.10733169590932e-05
0.48925,6.406969631318169e-05
0.4895,8.627797097225163e-05
0.48975,0.00010665939041301559
0.49,0.00012450596569128994
0.49025,0.00013919872448209483
0.4905,0.00015018055255319984
0.49075,0.00015696283555789777
0.491,0.00016044699212543046
0.49125,0.00016043173819564146
0.4915,0.0001571866904062024
0.49175,0.00015110100508292803
0.492,0.00014273699929439438
0.49225,0.00013233859000898532
0.4925,0.00011966193527200953
0.49275,0.00010481544607972938
0.493,8.805471890017272e-05
0.49325,6.916765705738255e-05
0.4935,4.858632495786731e-05
0.49375,2.6356131686054324e-05
0.494,3.248029804854643e-06
0.49425,-2.031367280859193e-05
0.4945,-4.3454055291079184e-05
0.49475,-6.594408990084391e-05
0.495,-8.701770050209222e-05
0.49525,-0.00010698063533782086
0.4955,-0.00012511619362256393
0.49575,-0.0001426437100064281
0.496,-0.00015955878393678977
0.49625,-0.00017734539906212544
0.4965,-0.0001972859940282539
0.49675,-0.00021467898930314293
0.497,-0.00022380028155423532
0.49725,-0.00021984101763255682
0.4975,-0.00019909680028886353
0.49775,-0.00015921209860181112
0.498,-9.797230478020996e-05
0.49825,-1.5100315023835273e-05
0.4985,8.947105946405945e-05
0.49875,0.0002025866649680947
0.499,0.000303659325289377
0.49925,0.0003754865845542509
0.4995,0.00040505211490853796
0.49975,0.00038339403357015654
0.5,0.00032020164169818384
0.50025,0.00023371261242648915
0.5005,0.00014091618104604056
0.50075,5.762124842425953e-05
0.501,-5.072213057655335e-06
0.50125,-4.394811970368367e-05
0.5015,-5.9918737752222585e-05
0.50175,-5.6609952914652174e-05
0.502,-3.852471911467783e-05
0.50225,-1.326206281464829e-05
0.5025,1.1445718458934842e-05
0.50275,3.224013189019165e-05
0.503,4.700111835917511e-05
0.50325,5.4495806653897886e-05
0.5035,5.576507109979523e-05
0.50375,5.2216464397357e-05
0.504,4.580030476058796e-05
0.50425,3.754443052928282e-05
0.5045,2.7981342776468405e-05
0.50475,1.7894706430104086e-05
0.505,7.713769899886977e-06
0.50525,-2.0711707906725127e-06
0.5055,-1.128320696912205e-05
0.50575,-1.970595495854246e-05
0.506,-2.729171037435871e-05
0.50625,-3.382792351164075e-05
0.5065,-3.93772942366936e-05
0.50675,-4.378713262884232e-05
0.507,-4.6931246503433525e-05
0.50725,-4.8629211681042606e-05
0.5075,-4.850880846847194e-05
0.50775,-4.659220905718588e-05
0.508,-4.248208112188973e-05
0.50825,-3.583324537051245e-05
0.5085,-2.6906745884055057e-05
0.50875,-1.5167722010267016e-05
0.509,-1.5098364117277171e-06
0.50925,1.4587278778766533e-05
0.5095,3.1741736981603016e-05
0.50975,5.0117705777218333e-05
0.51,6.827157876135417e-05
0.51025,8.671496019199067e-05
0.5105,0.00010392595845383604
0.51075,0.0001207168193479101
0.511,0.00013613095518388035
0.51125,0.00015060446255971396
0.5115,0.0001637290950137117
0.51175,0.00017597379079739133
0.512,0.000186896264574572
0.51225,0.00019666677574622406
0.5125,0.00020469257661145446
0.51275,0.00021064252979380256
0.513,0.00021454985418373093
0.51325,0.00021538250786070105
0.5135,0.00021293054809974821
0.51375,0.00020678046299982665
0.514,0.0001972001414793816
0.51425,0.000183818109537535
0.5145,0.00016774526488102316
0.51475,0.00014887217351956718
0.515,0.00012883367922401917
0.51525,0.00010801748865095196
0.5155,8.75301170919623e-05
0.51575,6.77467378171436e-05
0.516,4.9271629595881536e-05
0.51625,3.2336536924105244e-05
0.5165,1.6836000205378452e-05
0.51675,2.448252611800669e-06
0.517,-1.1167236708603886e-05
0.51725,-2.4433742279573918e-05
0.5175,-3.759261093377224e-05
0.51775,-5.070023051131259e-05
0.518,-6.353299504172763e-05
0.51825,-7.575646502948334e-05
0.5185,-8.667026481157707e-05
0.51875,-9.575415258148022e-05
0.519,-0.00010231745803744936
0.51925,-0.00010600171309751858
0.5195,-0.00010654120405923954
0.51975,-0.00010416250015531168
0.52,-9.928111378517253e-05
0.52025,-9.256067159773537e-05
0.5205,-8.488715398661406e-05
0.52075,-7.713950848106802e-05
0.521,-7.000850197435413e-05
0.52125,-6.399564296145548e-05
0.5215,-5.922758464591077e-05
0.52175,-5.56781826440034e-05
0.522,-5.2807698667438564e-05
0.52225,-5.015131497357727e-05
0.5225,-4.6916523914225584e-05
0.52275,-4.265751480095264e-05
0.523,-3.6869597311978025e-05
0.52325,-2.9564253973195678e-05
0.5235,-2.091498645256969e-05
0.52375,-1.1532904715355235e-05
0.524,-2.0943789022911457e-06
0.52425,6.570362344644733e-06
0.5245,1.3823518259166425e-05
0.52475,1.9078430539245673e-05
0.525,2.2326695069834496e-05
0.52525,2.3671584111598365e-05
0.5255,2.382756610376656e-05
0.52575,2.355327466477247e-05
0.526,2.3903598029903625e-05
0.52625,2.5727711892340697e-05
0.5265,2.9772955617350112e-05
0.52675,3.6324723246178306e-05
0.527,4.53327924243846e-05
0.52725,5.617266391907304e-05
0.5275,6.809860492509477e-05
0.52775,7.97651121265417e-05
0.528,9.032351773629075e-05
0.52825,9.80772433321889e-05
0.5285,0.00010263506950442204
0.52875,0.00010341725213713362
0.529,0.00010087994259569885
0.52925,9.513799942388261e-05
0.5295,8.765230337428856e-05
0.52975,7.853303103405562e-05
0.53,6.971941839219075e-05
0.53025,6.133152272639262e-05
0.5305,5.395493650737152e-05
0.53075,4.8097663532779364e-05
0.531,4.2995247760571076e-05
0.53125,3.817496232298852e-05
0.5315,3.295360924914021e-05
0.53175,2.6783871151998182e-05
0.532,1.8999735662475848e-05
0.53225,9.405265917002816e-06
0.5325,-1.887630240544363e-06
0.53275,-1.4277257638536999e-05
0.533,-2.6736564539491827e-05
0.53325,-3.804153763012189e-05
0.5335,-4.834150481282277e-05
0.53375,-5.789257855393299e-05
0.534,-6.677671848878519e-05
0.53425,-7.526741450429137e-05
0.5345,-8.370145003461946e-05
0.53475,-9.23350278858649e-05
0.535,-0.0001015396927172918
0.53525,-0.00011179971422648739
0.5355,-0.00011741006279412228
0.53575,-0.000110995331367198
0.536,-8.767329043345605e-05
0.53625,-4.425559436798754e-05
0.5365,1.9673730706652168e-05
0.53675,0.00010209827354125059
0.537,0.00019809864191656955
0.53725,0.00029630315789469015
0.5375,0.0003753567002107066
0.53775,0.00041674528318489247
0.538,0.00041107866363760504
0.53825,0.00035922921847614925
0.5385,0.0002764990552974015
0.53875,0.00018236342555951653
0.539,9.296754301578736e-05
0.53925,1.999956208822237e-05
0.5395,-3.113159230699739e-05
0.53975,-5.748331132122899e-05
0.54,-6.329675891305771e-05
0.54025,-5.567315563767111e-05
0.5405,-3.994310045447854e-05
0.54075,-2.063309058621865e-05
0.541,-8.161111352783001e-07
0.54125,1.678252204292008e-05
0.5415,3.1483673176112906e-05
0.54175,4.2184271881488665e-05
0.542,4.9994394628407097e-05
0.54225,5.5118676412240147e-05
0.5425,5.727518942602717e-05
0.54275,5.60963425438436e-05
0.543,5.152235096619036e-05
0.54325,4.35915167481296e-05
0.5435,3.2793671216022206e-05
0.54375,1.981134163872974e-05
0.544,5.941508805676112e-06
0.54425,-7.39921597837377e-06
0.5445,-1.8769346704448885e-05
0.54475,-2.714796856983506e-05
0.545,-3.1747649564572655e-05
0.54525,-3.2436393266131966e-05
0.5455,-2.9508029518311412e-05
0.54575,-2.4216340911230272e-05
0.546,-1.6652696881820936e-05
0.54625,-8.42394759018006e-06
0.5465,-1.1496766447918474e-07
0.54675,7.690242622845276e-06
0.547,1.4411359494285709e-05
0.54725,2.0917822824939467e-05
0.5475,2.775967356970806e-05
0.54775,3.550885862829158e-05
0.548,4.5603659075973095e-05
0.54825,5.869813717956663e-05
0.5485,7.515808673271437e-05
0.54875,9.521963105155876e-05
0.549,0.00011751989588165717
0.54925,0.00014176466116675576
0.5495,0.00016645789076389665
0.54975,0.0001899503132138011
0.55,0.00021062016136350867
0.55025,0.00022701426402514598
0.5505,0.00023930129128058592
0.55075,0.00024680367990952053
0.551,0.00025007325576550287
0.55125,0.00024971505828474657
0.5515,0.0002465901167643343
0.55175,0.00024141620057912337
0.552,0.00023574912997323863
0.55225,0.0002292947738538593
0.5525,0.00022258329734116544
0.55275,0.0002155183038174677
0.553,0.0002067974684139038
0.55325,0.00019631340272131134
0.5535,0.00018292223797199044
0.55375,0.00016576116971833208
0.554,0.0001449349806524245
0.55425,0.00012050433616204457
0.5545,9.346106819209301e-05
0.55475,6.441917046303156e-05
0.555,3.4757324644956716e-05
0.55525,6.014636634427947e-06
0.5555,-2.069543972058949e-05
0.55575,-4.436069097861242e-05
0.556,-6.443880795609425e-05
0.55625,-8.07864080319473e-05
0.5565,-9.374387246040998e-05
0.55675,-0.00010394010080385537
0.557,-0.00011219635846983238
0.55725,-0.000119268029312923
0.5575,-0.00012577799895553929
0.55775,-0.00013197838562192148
0.558,-0.00013777740562562592
0.55825,-0.00014267344410291016
0.5585,-0.00014580111381728422
0.55875,-0.0001463203238131853
0.559,-0.00014319242491250134
0.55925,-0.0001357851419023819
0.5595,-0.0001236887932583872
0.55975,-0.00010703142415455572
0.56,-8.641172521213944e-05
0.56025,-6.270859465493255e-05
0.5605,-3.718598059015702e-05
0.56075,-1.1196960338643949e-05
0.561,1.401710379537365e-05
0.56125,3.735406267408542e-05
0.5615,5.8166309754562235e-05
0.56175,7.614612318069045e-05
0.562,9.135535719875443e-05
0.56225,0.00010421528541970717
0.5625,0.00011532105649712163
0.56275,0.00012524306179958862
0.563,0.00013451740561694087
0.56325,0.00014335593779221998
0.5635,0.000151805890155603
0.56375,0.00015946176890276658
0.564,0.00016596418825786134
0.56425,0.0001705385551240457
0.5645,0.00017266529072756392
0.56475,0.00017136457253073554
0.565,0.00016713282249892353
0.56525,0.00015874071910705988
0.5655,0.0001472690759705444
0.56575,0.0001334733608035594
0.566,0.00011748647393989358
0.56625,0.00010045591318957184
0.5665,8.310427323066757e-05
0.56675,6.588246316256072e-05
0.567,4.940772335859484e-05
0.56725,3.360595574175978e-05
0.5675,1.8459960948165954e-05
0.56775,3.7409152700667807e-06
0.568,-1.0477817390698604e-05
0.56825,-2.4524482333522143e-05
0.5685,-3.822548206129153e-05
0.56875,-5.166596029804076e-05
0.569,-6.389602517041846e-05
0.56925,-7.492283474529399e-05
0.5695,-8.325787685551834e-05
0.56975,-8.820383588016148e-05
0.57,-8.905922702102346e-05
0.57025,-8.565940190438807e-05
0.5705,-7.798047546757068e-05
0.57075,-6.62293351942578e-05
0.571,-5.124723921449949e-05
0.57125,-3.400021833423697e-05
0.5715,-1.5872203392427883e-05
0.57175,1.7875710007649998e-06
0.572,1.6470790286898788e-05
0.57225,2.6302503270975404e-05
0.5725,3.0518381139780295e-05
0.57275,2.9682142407742745e-05
0.573,2.5630088553034816e-05
0.57325,2.171906244961321e-05
0.5735,2.4233594933542206e-05
0.57375,3.987733274581467e-05
0.574,7.302692933402055e-05
0.57425,0.0001268846267998321
0.5745,0.00020314481674123326
0.57475,0.0003011746374663686
0.575,0.0004019124616411154
0.57525,0.0004838960097158667
0.5755,0.0005345834876487154
0.57575,0.0005419347532559218
0.576,0.000496606820409228
0.57625,0.0004075809457752498
0.5765,0.0002929639549354934
0.57675,0.0001742129371210311
0.577,6.700475811260854e-05
0.57725,-1.8481195449805467e-05
0.5775,-7.830599635020272e-05
0.57775,-0.0001127902903888327
0.578,-0.0001249033607454159
0.57825,-0.0001224878418310206
0.5785,-0.0001125208940770774
0.57875,-0.00010055448387264273
0.579,-8.994867966761361e-05
0.57925,-8.271408542178966e-05
0.5795,-7.902488836751305e-05
0.57975,-7.732036066164341e-05
0.58,-7.591290936566601e-05
0.58025,-7.399169852203445e-05
0.5805,-7.093086421557444e-05
0.58075,-6.620358575336647e-05
0.581,-5.944168922493135e-05
0.58125,-5.0472341241825474e-05
0.5815,-3.9269176853028735e-05
0.58175,-2.6048533579234028e-05
0.582,-1.1134734954511364e-05
0.58225,5.334810181152604e-06
0.5825,2.301852902569574e-05
0.58275,4.142175909565629e-05
0.583,6.057845668631824e-05
0.58325,7.976162452331098e-05
0.5835,9.852348853330694e-05
0.58375,0.00011659011248687236
0.584,0.0001332359937946521
0.58425,0.00014861713987874723
0.5845,0.00016228213914614735
0.58475,0.00017411575186819408
0.585,0.0001842630886670686
0.58525,0.00019246855626739307
0.5855,0.00019897114286671357
0.58575,0.00020404807799970394
0.586,0.00020768941915127564
0.58625,0.0002096526749022223
0.5865,0.00021098184977344273
0.58675,0.00021070575904105903
0.587,0.0002094205805590945
0.58725,0.0002073135080296444
0.5875,0.0002033566165646933
0.58775,0.0001978416390075007
0.588,0.00019066930674280723
0.58825,0.00018190557384276923
0.5885,0.00017163352074717469
0.58875,0.00016024212338885965
0.589,0.00014804570986388983
0.58925,0.00013646413974870267
0.5895,0.00012565530164472194
0.58975,0.0001165755603039155
0.59,0.0001091797164556557
0.59025,0.00010442894789004656
0.5905,0.00010183989748706192
0.59075,0.00010177083065970229
0.591,0.00010287109384593533
0.59125,0.00010452011870865012
0.5915,0.00010621402674536678
0.59175,0.00010701754868523984
0.592,0.00010570383343531183
0.59225,0.00010244161614394242
0.5925,9.66638916373366e-05
0.59275,8.873632661723005e-05
0.593,7.874287528910899e-05
0.59325,6.729997688503495e-05
0.5935,5.529077955273269e-05
0.59375,4.318062819371818e-05
0.594,3.163017735163431e-05
0.59425,2.092554118416912e-05
0.5945,1.1196754249004015e-05
0.59475,2.2591131939472463e-06
0.595,-6.1242364794596e-06
0.59525,-1.436453118740671e-05
0.5955,-2.2772923296564652e-05
0.59575,-3.151492868958999e-05
0.596,-4.059228944970584e-05
0.59625,-4.959542190831814e-05
0.5965,-5.80392448656191e-05
0.59675,-6.511405234497428e-05
0.597,-7.007269592347575e-05
0.59725,-7.219961716192818e-05
0.5975,-7.10009458399134e-05
0.59775,-6.632977617827472e-05
0.598,-5.845885479451363e-05
0.59825,-4.8057892783383637e-05
0.5985,-3.591609411501618e-05
0.59875,-2.3209211963654186e-05
0.599,-1.0920811813299632e-05
0.59925,1.4403777423036346e-07
0.5995,9.545843901187005e-06
0.59975,1.7171837463472548e-05
0.6,2.3441170121596987e-05
0.60025,2.921192375205192e-05
0.6005,3.5480943548144604e-05
0.60075,4.336817984701978e-05
0.601,5.375368674154575e-05
0.60125,6.72686307502337e-05
0.6015,8.394170479263109e-05
0.60175,0.00010325400777624411
0.602,0.00012438158683827116
0.60225,0.0001458170874850721
0.6025,0.00016608613051609578
0.60275,0.00018327758995870366
0.603,0.00019672157673057317
0.60325,0.00020498822820243673
0.6035,0.00020804435989879374
0.60375,0.00020603144728095698
0.604,0.00020005405346489263
0.60425,0.00019029688376589487
0.6045,0.00017854135886911313
0.60475,0.00016574755503674763
0.605,0.0001523894235215083
0.60525,0.00013883554050482416
0.6055,0.00012530692476358062
0.60575,0.00011079590990468973
0.606,9.424920269865652e-05
0.60625,7.537771118115018e-05
0.6065,5.329813521468307e-05
0.60675,2.782442294471967e-05
0.607,-5.644713229811955e-07
0.60725,-3.125404898671189e-05
0.6075,-6.221282605171948e-05
0.60775,-9.177485958240981e-05
0.608,-0.00011771605836590514
0.60825,-0.00013828954598317866
0.6085,-0.0001518790502725301
0.60875,-0.0001581038375324378
0.609,-0.00015684482166052
0.60925,-0.00014905696909830166
0.6095,-0.00013615822722618805
0.60975,-0.00012047179802147278
0.61,-0.00010510089391174639
0.61025,-9.216213649473885e-05
0.6105,-8.232347625275143e-05
0.61075,-7.474370407431225e-05
0.611,-6.670394433954787e-05
0.61125,-5.2412122057148215e-05
0.6115,-2.5035072213556945e-05
0.61175,2.080958861587088e-05
0.612,8.977771103273718e-05
0.61225,0.00018509032452766627
0.6125,0.0003053522507925267
0.61275,0.00043501664969368984
0.613,0.0005567467593419743
0.61325,0.0006527311175466054
0.6135,0.000705242638809334
0.61375,0.0006992195055140622
0.614,0.0006338458296238289
0.61425,0.0005298507633695817
0.6145,0.0004063465373523266
0.61475,0.0002805031869681821
0.615,0.0001656552033714069
0.61525,7.223331024950397e-05
0.6155,4.02598639914426e-06
0.61575,-4.017689069648154e-05
0.616,-6.458399084342753e-05
0.61625,-7.357822016723066e-05
0.6165,-7.343378606191654e-05
0.61675,-7.189994026833953e-05
0.617,-7.33913869167557e-05
0.61725,-7.951333072614343e-05
0.6175,-9.107205769524612e-05
0.61775,-0.00010794084904230382
0.618,-0.00012884266679997144
0.61825,-0.0001515858711622993
0.6185,-0.00017420407323666084
0.61875,-0.00019440140095045453
0.619,-0.00020973760468985032
0.61925,-0.00021798236319410294
0.6195,-0.00021765773497569845
0.61975,-0.000208046845679401
0.62,-0.00018948620201484931
0.62025,-0.00016300530858526677
0.6205,-0.00013068653754037113
0.62075,-9.487713058972383e-05
0.621,-5.739901224538459e-05
0.62125,-2.0978822086642018e-05
0.6215,1.3966958773733913e-05
0.62175,4.6289587289104694e-05
0.622,7.68453394224186e-05
0.62225,0.00010641553525930067
0.6225,0.00013691974053461537
0.62275,0.00016953783807857018
0.623,0.00020501547114630265
0.62325,0.0002437715222354853
0.6235,0.0002857274335080035
0.62375,0.0003286921884998135
0.624,0.00037041602645947213
0.62425,0.0004082164161602226
0.6245,0.000438908416028364
0.62475,0.0004604474383064728
0.625,0.00047119981279184717
0.62525,0.0004697278459137106
0.6255,0.0004572889560024023
0.62575,0.00043507126904383017
0.626,0.00040496354568496796
0.62625,0.00037046066925786985
0.6265,0.00033383188509915004
0.62675,0.000297195254387355
0.627,0.00026227492432720094
0.62725,0.00022899246221764688
0.6275,0.0001974545783468907
0.62775,0.0001662707096712208
0.628,0.00013319773023106875
0.62825,9.723586615352916e-05
0.6285,5.671439289793427e-05
0.62875,1.1567393954453343e-05
0.629,-3.7540662066459974e-05
0.62925,-8.890050423288081e-05
0.6295,-0.00013944917664761064
0.62975,-0.0001863870842784549
0.63,-0.00022562642971086396
0.63025,-0.00025505618537402134
0.6305,-0.0002718940047203812
0.63075,-0.00027524765771303275
0.631,-0.00026636234868545255
0.63125,-0.000245947870262273
0.6315,-0.00021707170986259066
0.63175,-0.00018275186362832222
0.632,-0.00014610498042015707
0.63225,-0.00010981587144309109
0.6325,-7.564369714380341e-05
0.63275,-4.450245589576007e-05
0.633,-1.6111836305910298e-05
0.63325,1.04943127801087e-05
0.6335,3.6883665264104485e-05
0.63375,6.447591218306111e-05
0.634,9.445012878930967e-05
0.63425,0.000127085133501651
0.6345,0.00016176240720755964
0.63475,0.0001968490198686458
0.635,0.00022995353851847742
0.63525,0.0002582885445750989
0.6355,0.0002791269878752944
0.63575,0.00029021496259409196
0.636,0.0002902709671803371
0.63625,0.0002791735054284077
0.6365,0.0002580983042160692
0.63675,0.00022927164133818476
0.637,0.00019572141738215604
0.63725,0.00016069789685912734
0.6375,0.00012726113490497718
0.63775,9.76894599217269e-05
0.638,7.327280738360757e-05
0.63825,5.40111617928674e-05
0.6385,3.885873221300369e-05
0.63875,2.5863722757917856e-05
0.639,1.2733185983412588e-05
0.63925,-3.321658144288092e-06
