Combined_ECG
-0.08491228033886387
0.5103316431064775
-0.1533681821539382
0.1017917738652314
-0.08377212607946832
0.03017067609148699
0.38975528408511845
0.15233603787403263
-0.04071518443319072
-0.3421294408929831
0.31760791634125946
-0.14759362039630844
0.14106050533913164
0.2928819337899069
0.2096926309839394
-0.27159177489535713
0.1286599894465882
-0.056110297953698186
-0.01342342695772479
-0.13084163657329725
-0.01860046716582896
0.16511055077678372
-0.07424485050365151
0.2056902645656306
-0.3597881283533312
0.005938693765606224
0.4504403450792202
-0.3345849350809595
-0.05756762855533671
0.004962643868466407
0.0963832980736084
-0.22535943383207366
-0.13210737367726264
-0.11691536866054594
0.12402629148256941
-0.21350038765882093
0.37763487661508344
0.05103315857464286
-0.03630644416970318
-0.015827829096233675
-0.19169401056098787
-0.09928624620896678
-0.009888784291295905
0.057002720104951485
-0.34283058327868354
0.023089832372153722
0.31644856219349343
-0.04884383114975087
0.3176419647779105
-0.13361302237924536
0.14833666036957643
-0.036252958166064844
-0.004590399378549289
-0.0981281694474563
-0.18751260929823685
0.12828661597786145
0.12986483891358233
0.24495398875678534
0.027824711523049373
0.000360240662296004
-0.18597692416264155
0.06515095670519176
-0.11580638202886241
0.028075368833968994
-0.024197063251679966
0.11827213495999955
0.386684102326489
0.21180936620714036
0.12043192405049642
-0.03369167926428573
-0.06283704349380323
0.09898999114957324
-0.03229592551380146
0.13012013275168607
0.046144067999739705
0.20794969811799002
-0.2459135903326493
0.180144433912681
-0.0916841513806896
0.08966965394100908
0.06310477584010983
0.15540308142317624
0.13599313281332823
-0.370966812751103
0.05784530027826257
0.03904328131092369
-0.22817415657761447
0.4947305658819749
0.24639915905478893
0.1810442584642983
0.022088803428576602
-0.11329545786817555
0.05265199943679908
-0.06496720194831679
-0.05973480387118168
0.0031272948656707426
0.29398995676795786
0.14803167756344748
0.0316145304016276
-0.06360177119990476
0.15563706631447444
-0.4198302939759917
-0.004137471047505323
0.19198895915162806
0.12404527250464836
0.24694606819796938
0.18999089660632948
0.054045692888404266
0.030414861541819917
-0.07416147976730096
-0.12051152825961955
0.05170604928902488
0.12989763468462803
0.07391519568820237
-0.0720747755532093
0.11680428940108625
-0.33211139479281515
-0.2950840111884676
-0.03542810227729776
0.05691484654388661
0.15655943548271742
-0.1253874845324122
0.251096726211737
-0.23009812501115665
-0.3683421783247975
0.20123312656667636
-0.11671977376372372
0.224722119365369
-0.2419257973873044
0.14808717997497392
0.16849040943883378
-0.14872446265769418
0.2571411237252022
-0.11587258978596862
0.2669957081365064
0.324227949729779
0.4053893784444135
-0.32988733840138273
0.1077065204840603
0.6301462994480211
-0.13819207919009535
0.2102366148337336
0.1519877526312446
0.16880533288441238
0.2402664866490397
0.07974273988419504
0.5041752926182056
0.2625499591570628
0.16694317908674244
-0.028171965004294565
0.48860147772394474
0.028310869706505655
0.10535196235021069
0.3492260341651556
0.21185838032735665
-0.14427980928679476
-0.00741549406325287
-0.2204649687700502
0.19801775291812768
-0.019112979116891908
-0.15620545469001512
0.15119715576334974
0.16222172087624517
0.3011139776968641
-0.27480128088059286
0.009781837067005625
0.3674392626548058
-0.14228823241525473
0.21515783344127482
0.1239168451216815
-0.034965031265994366
0.019057655148171454
0.2496065460633884
0.15576558520791334
0.00031941854445684953
0.5051212810687077
-0.18635503422901822
-0.25012214949795875
0.2345161266564838
0.31558656809670604
0.0649221033059345
0.030962656207081468
-0.02752557157262145
-0.10131322667018013
-0.09914565726945192
0.11214450716308683
-0.20911686495414772
-0.016109457711225267
-0.11602533477616069
0.507980441264241
0.07811160940454756
-0.036007138087329374
0.07055206155022056
0.18743770096642665
0.33042046442603346
-0.2579127410168666
0.21848155669788705
0.13215515790807628
0.03985491039905571
0.18719406292495966
-0.005806865432259951
-0.09628012324880862
0.3507179228182607
0.13849429835869315
0.10594175472743608
-0.007262056585979677
0.03415094759389137
0.024616108100202722
0.12296105915657377
-0.16523198861146812
0.17144877420376933
0.19686596653322022
0.15748131364143889
0.08201092698164608
0.12226388286540871
0.11867532570038747
-0.24212292832267454
0.03433971970151895
0.05182634538318094
0.12890917600766658
-0.18779614680636633
0.28967607740842694
0.0525935647732698
0.2119479822504409
0.11757564314020916
0.07575142168523565
0.1195032560650516
0.09471634798188686
-0.05749984180463797
0.3209979562923729
0.4063941536930744
0.1370240512412485
0.12006428115631942
-0.08792505235680739
-0.14698810284479538
0.1066795695128154
0.2110195872769794
-0.35793039444715813
0.055698196441348324
-0.014645544728439569
-0.19336987057837127
0.1327369859032208
0.11849035242903552
-0.13226950493024975
0.2404437402158017
0.25992324541434875
0.011758125412017283
0.14079886040519102
0.269033246361834
-0.3152107537535302
0.1969160521165218
0.29071191969000987
-0.3336656081099487
-0.08963957164723718
0.21514474313715848
0.03180287623478348
0.1094972625001743
-0.24502211700488574
-0.10460098473323803
0.18693077043477502
0.012292266044383077
0.05511667773629021
-0.07998051928235869
0.04897648806719398
0.31872873384911615
0.3583880848422231
-0.2172089858737226
-0.1348242218761015
0.378689919437483
0.0834867353943185
-0.2859810225926832
0.12022667895488529
-0.21082865657231434
0.2565114634828628
0.36305093424127965
0.15326603619107915
0.36222535193958993
-0.18145582993737636
0.06455721124642673
0.2310413027122261
0.19187964991845108
0.33029753198075257
-0.11998483047990359
-0.11522546388281286
0.12988578064219733
0.2800689264982085
0.057164391995896686
-0.35219511372228157
0.004321390166546646
-0.0074680760365299775
-0.03914513651860228
0.15959953843727492
0.058970465310009004
0.1481897553662695
-0.051324858414602784
0.3163523009927372
-0.17860048261125422
-0.16895820563574937
0.05441968191784129
-0.09582216963224276
0.19245456680020195
0.10707605802819883
0.12621630249451765
0.2869408222960208
0.3138459360001223
0.1162616193590894
0.006115856531989219
0.24547239762931589
0.06195096013509051
-0.12778273923968447
0.05674973055410003
-0.2214149097813632
0.08940096751350965
0.48471626265942525
-0.36807770091702263
-0.07197429729911455
0.5303470365753882
-0.20689125167209105
0.034270201624622035
0.09699748863179541
-0.1983539721093609
0.25809022033982665
0.10194549559359382
0.08176913859378271
0.16776682717080024
-0.01588647142818135
-0.07325525160583883
-0.02809444385671335
0.035321715246003284
-0.06797651195153541
0.025456996715796633
0.006526894216586171
-0.4442373904195149
-0.06994357031965782
0.21135679631474807
-0.043171492264287334
0.4263916465900718
0.013187404407017267
-0.12526532258342266
-0.05740282924737623
0.06874066942486533
0.2071039139963965
0.26537407504840915
0.3598753118326271
0.1777575145962844
0.24046812307998744
-0.009196579617012854
0.34784260116650767
-0.20949658386697156
0.28369089681956106
0.6484036853107635
0.2825863178378097
-0.20874316255091607
0.019009188548265277
-0.06255808473504587
-0.14888774750039413
-0.02390979372657631
0.16883715502471347
0.21405890449078246
-0.04297914545942033
0.05181963353180144
0.06358131752106148
0.136497015140441
0.03684546608403471
0.17312459051813278
-0.26654183395003916
-0.027919488280765292
-0.17572925393526997
-0.04647662776586026
0.23485089777288565
-0.06151750390385291
-0.05060850895191782
0.20630639845403204
0.023161486546750362
0.19735672584147196
-0.30958178193850916
0.06720992639520948
-0.1653002285559851
0.08432619513230707
0.2251840921885164
-0.07263967901213111
0.29664616885056977
0.30608358420683357
-0.00803072271439742
0.06928004414474707
0.11512150701701249
-0.16766379002256998
0.02025313674634796
-0.039664070042012306
0.02633988575221985
-0.24417551612777721
-0.07862410134435069
-0.24305315278799933
-0.06277410076679249
-0.09724028613227528
-0.20516763982607086
0.15821305779473863
0.11199220670687145
0.21034991427985708
-0.01997610727392289
-0.11539190622660325
0.10986643867728789
-0.040345144757638424
0.15728225466463935
-0.09265476095011319
0.3118272372910932
-0.10006879310032828
0.13092557970936416
-0.12373768177893212
0.008291460815339852
0.007363290835643854
0.3497039854636866
0.2259873268865497
0.31428824421736923
-0.09348642343799914
-0.02800619413303969
0.32090269395148113
-0.08517723045607777
0.21372833557360815
0.3282231700726196
0.07888968791698317
-0.1343723554771784
0.27170912866369656
0.608649734858751
-0.29848522837500735
0.612738906694457
0.12156057106884773
0.02857891354164792
0.08817424033035068
0.433950652073502
0.6118814533229584
-0.15628331422439617
0.526361408249176
0.08347654098830012
0.14776354677443104
0.4450768628263202
0.28307508811026183
0.0654273830309201
0.28593535369609613
0.47132364334744054
-0.002396418578107712
0.2669060437725677
-0.0662365905470854
0.17808829830853054
0.3286912499064141
-0.1460889427947224
0.28617344421340823
0.24992907213822257
-0.08610981867701335
0.05940873077975615
0.19941559303758877
0.15336321381692758
0.0472452067941299
0.07575163755509659
-0.19233620173206578
0.30358421469638697
0.14184731034507458
-0.13267861435512213
-0.3162190703383926
-0.07798115118696146
0.19772237855030883
0.04567325763944219
0.4501172676123978
0.35352528115208837
0.22776110822026174
0.2132309168967149
0.13142087363382474
0.19890477115042818
-0.14150785396846002
0.02898830282908213
0.48592142484864653
-0.13480494825741468
0.3246152284722314
0.4216267604616421
0.2810714333339986
0.26680164589421257
0.3399905716610928
0.22004869473138516
-0.369623762937222
0.1725488779864064
0.2348814119032666
0.06251509268421138
0.08616413438688554
0.28319141387544355
0.20854526034087448
0.03912174187272299
0.08454842885205974
-0.07124181770820212
0.3187585525238601
0.29089931587484064
-0.15991728231215677
0.13465076926990027
0.1422131452624375
-0.1845902471540184
-0.025341416202506906
0.201659843689269
-0.14156747643151815
0.2525486407332724
-0.03589355479855355
0.18193391356695948
0.030224352087533296
-0.5178479724241309
0.21295800115290842
0.4571931609242349
0.044331421607309046
0.16294761585060286
0.1636923167515261
-0.10064710317284248
0.16099519692861264
0.10092595578519108
0.23186814817069762
0.1682533781456752
-0.022538969163970968
-0.24264422060139368
-0.007910084735047868
-0.22934444010108856
-0.03975520556122217
-0.058236960236505375
-0.21169568291983934
0.25033249551390246
-0.21523783937806182
0.3225135268929342
-0.30054426308755733
0.10853311885480955
0.17125989392634286
0.40045621681728005
-0.012972085341636713
0.1582965360061325
0.2801823857028307
0.2541088131509835
0.13312015846686207
0.1294695940848639
0.1648430605331206
0.3093349077869484
0.3979591837853076
0.044838510358862965
-0.07056798540964582
-0.12493785187847073
-0.14325202943633428
0.20394544676917647
-0.14929659807927845
0.20386113887927143
-0.14155483213764933
-0.10202155717515188
0.18042568996300393
0.18909399000596477
0.1857068661828352
0.4421514207513988
0.08132279091099351
-0.03673473017233636
0.168665905947798
0.017602891449975344
0.13984585705728256
0.07420867469473932
0.14625121758761533
0.08833039641024597
0.059867614200837166
0.3309228446893024
0.08202077128978935
0.1188907618185133
0.15787713664859238
0.6025264612814543
0.2208944402121863
0.4370705986899892
0.030233352518322862
0.4479213143719004
0.1370252196857593
0.11998939629706845
0.1069308894384102
-0.19828556924847915
0.2079518234659261
-0.010508844045888005
0.15715357547354392
0.08882576410292276
0.04958930815404221
0.14393555713171752
0.103434077541569
0.3010253452098526
0.09138733447162438
0.14683572143399654
-0.09128312136039679
0.09087715456121051
0.3940828357632976
0.489362786422191
0.10534352202969877
0.17575616546644807
0.12418770612681321
-0.12754269802773785
0.24957439453443575
-0.13856602012770117
0.21200120188645477
0.1991421169354656
0.020975492325336492
0.18209893385040377
-0.17856693463795942
0.07248085832492104
-0.06731014874837404
-0.04900455617965338
0.4568408892335129
0.2663117991079858
0.41160835016813263
0.41271475428612703
0.0337969111800695
0.36014208868421205
0.07742356457517408
0.2951755903598373
0.3576623378994018
0.17573539305067237
0.054358960897204184
0.029885392455968177
-0.22000066996937262
0.2788070777113572
0.13866130502522148
0.17662187581727784
0.2644996548475704
0.07246690829259674
0.10843474109690868
-0.03340592260440772
0.3639322952588453
0.06239336066878795
-0.037279662959871535
0.6450536932440272
0.4334610251613308
-0.1222776590491145
0.024527585343957964
-0.1296366477993343
0.1133656926275874
0.4827137247052753
-0.008019374298325832
0.18087862532050294
0.5732702068959084
0.15358912847940676
0.09557763973652275
0.1485450651171727
0.7087087774787162
0.45634624049715633
-0.004344031533883408
-0.06956430243484144
0.23988582786635143
-0.0282844618212805
0.34759370072938256
0.1406551965571789
0.013186678708205418
0.24845270365930994
-0.1696863453452122
0.35541289297836876
0.39711762750374435
0.3854254716928619
-0.06736616413742147
0.4059106998896452
0.05485045592516069
0.09283698912760545
0.36404182863189466
0.22242605730938594
0.17097237964612788
-0.17735869641832644
0.2425197435048987
0.34413369004262595
0.09443164545871892
0.07524681953359318
0.291442197542836
-0.08420393161453682
-0.1071497550989789
-0.11130852315073322
0.46991934152774784
0.4464107199306301
0.48707489027295336
-0.16549670407067632
-0.037097901963484836
0.1271316903941525
0.2883317195215812
-0.15016581414777833
0.10000150579069761
0.03657143282502123
0.47055405786353727
0.2292779023514203
0.022033963043183197
0.28521517577815525
-0.28458892402839264
0.12507633323119577
0.13725056016706394
0.18583450537420082
0.00697625636229432
0.5075755921729175
0.21333087301922254
0.12658113829461462
0.3095545520515641
0.36442776804516785
-0.11006855630488374
0.3622928843315045
0.21731542585889793
-0.10990216397883312
0.20609706548282128
0.015848668623267226
0.606001181909797
-0.027637181043491388
0.06398136133010238
0.3441545376247216
0.26909515375758286
-0.36622826747646037
0.45035910496439024
0.21670862951443054
0.052638895726797114
0.4808635575779293
-0.00301329876389847
0.10583142065350405
0.3578515056492413
0.4489792548012944
0.36394607082613123
0.20262448430082336
0.28945751044852397
0.10722652282598584
-0.06674669296641578
0.1959485807769985
0.14225232668790758
0.2569457291456324
0.17722000310483493
0.3356586404581151
0.28364973442310293
0.28198278579247466
0.07178276302911654
0.16009933799134718
-0.10634125793526186
0.6365173723191304
0.5370272794008454
0.11806620293246527
0.446028451421539
0.44833806390346737
0.26715985582449575
0.17559406196937413
0.12278648248488841
0.3073583993002535
0.12453370811606525
0.137326268777766
0.08538307439633921
0.3029138979537668
0.11125397519213492
0.19449768461205388
0.15533720068078774
0.2148414288952533
0.18013148462004264
0.2378506518818737
-0.08267698011279237
0.34507852085369284
0.16468229631671702
0.09057511431023015
0.20343062647917548
-0.22871481587794712
0.21741684358818208
0.47120888047326637
0.018653484831720357
0.1394792099810578
0.5092171875000089
0.010743189019326582
0.47291522351849935
0.08788955592047959
-0.030005225032522786
0.39499302073821985
0.10406625649369183
0.1546642520829634
0.15289507919960424
0.028066155795462427
0.2925363454707389
-0.03885913354582368
0.29149481031326424
0.39205923995989844
0.04639485775150087
0.1961666218137398
-0.04588472415321759
0.3710817402108046
-0.10212080135315957
0.10857224423842043
-0.13334921406823677
0.4106933230300823
0.12860592917240715
0.43919402308411015
0.03590428389345618
-0.26685402670520475
0.27551287577554784
0.39345743856812665
0.5799336906752585
0.06935728590260332
0.3140064244656069
0.24523433400131292
-0.09304365332676681
0.19195226186374578
0.13681378407295494
0.3025086132628703
0.07346437888465987
0.5976662987992429
0.23129687072614707
0.1082699545861
0.03473799539307984
0.6071842197892943
0.16510859150706028
0.1752912824151925
0.013129314818942361
0.4363387921506917
0.11072418649621744
0.2605941139407721
0.07005972555978701
0.3971992456004817
0.4342746979900626
-0.23366296771928396
0.26887794770416845
0.12054722769138894
0.29084437724760764
0.22104866499309125
-0.13666732892394926
-0.1656091838619006
0.04959346833845399
0.0359893977155398
0.39589625038908016
-0.19004550915375099
0.3798464616847729
0.16399066416767805
0.10356184125409734
0.13286588430702392
0.08556771943567343
0.5031320924225938
0.2809634145152199
-0.21314145058129322
0.2925166830262313
0.33386858984039874
0.4942489722590206
-0.002920569247052751
0.04464284456953388
0.29131898395944567
0.5530176292789312
0.33234102099928353
0.2698521379077723
0.2478291534916817
0.6664053778011407
0.3101074237414173
-0.08684629397176952
0.14096377014094807
0.42916338915079566
0.11161272931896891
0.35984437396267654
0.17541395346359714
0.5955762948726995
0.33391710262861785
0.18847698049366587
0.2805161614695636
0.304233700794516
0.03788723704455843
0.20252627709553803
0.2676685886970979
-0.10158239978876316
0.08400219231049089
0.21571858876415373
0.43819873961284506
-0.02699063037746985
0.1162851354726018
0.48273108985658325
0.12087790672254337
0.20700003951486068
0.193265612040547
0.17749699885245868
0.2330536449695656
0.3879568330484557
0.43064185136411826
0.3840337071498525
0.20545303706322782
-0.058166180933655776
0.4150618143408934
0.10734893621257925
0.00042826166100087826
0.2147715276933711
0.3015133673726156
0.41931387320371183
-0.1041298039119152
0.11402951366883259
0.3154345645829144
0.2888389510902418
0.3420058554656875
0.45930489300992433
0.3943843905181035
0.710452571202314
0.13643567827361633
0.5331393947496146
0.46095070180897824
0.4651330004436539
0.15064309503300494
0.24297660977566593
0.19031585774202728
0.34106513465481414
0.004973001360058321
-0.11491516611634583
0.2114789678245113
0.15625493197338036
0.13054975155140847
0.24403135346286245
0.2799761366186729
0.4611820358630893
0.30842310459075817
0.3546043568825267
0.15065889811435207
0.3547283646718903
0.16628694202279304
0.18390848023257342
0.16533035055696166
0.016270509622572704
0.16356754262201365
-0.05318594595393544
0.1388495450452712
0.12291586881061956
0.1706097058826029
0.6013523017321197
0.029900561456178476
-0.022626125882698134
0.1764102110255911
0.4160107141470813
0.316526126658523
0.06859186098439371
0.23228073907690847
0.0687873858832127
0.356590739366609
0.22995725347332133
0.04649190949481566
0.2872962975674762
0.28905785853055754
0.1673869114501117
0.21064290426221194
0.24900894752217345
-0.0215708801934211
0.44769160390513474
0.09173008740564623
-0.010531091080718258
0.2752125169908171
0.03371963355705737
0.19773666480987873
0.5103574890569267
-0.05612650245598913
0.09832587428663811
0.2505480964537878
0.17606718380761538
0.1678278535933792
-0.11603951067795873
0.23564695908738373
0.22726594580765153
0.27974615178222095
0.4999009294443876
0.17391117280221985
0.01229392801741272
0.06675627510106669
0.41145388221782064
-0.05643515894012929
0.26672755481464533
0.2868527490226412
0.504369041753429
0.20850160593624248
0.2611791158727351
0.07677023291689078
-0.07147141823758144
-0.03489469088585545
0.2128236751968777
0.3077634732567825
0.44988002108851616
0.032852566714468595
0.00952149803718666
-0.047925563981391806
0.0688791140912356
0.4194175207744699
0.14756201103098754
0.15290086845711917
0.18122898792176034
0.31446669907935865
0.19338566044430527
0.5447607677562931
0.42202521951504224
0.28391204286965777
0.23017645885731952
0.043560851698481395
0.036716890707265
0.11571309643200561
0.4148537990441905
0.2539768274877681
0.47943332494658975
0.2835058886647081
0.5137805059852041
0.42401967535774826
0.21790529134585673
0.29138026598122696
0.2833093364299637
0.4714642048739732
0.023396122176888634
0.3777012885058254
0.3354385623550453
0.009411882938720667
0.291439312743492
0.1151585724933232
0.15171044538403755
0.46822141403537865
0.275721340944669
-0.002799058210499361
0.38955926890190473
-0.11308874795899926
0.31004856659960006
-0.09689364637532488
0.2995696337509405
0.016614895064543944
0.07333363798108511
0.5552110753847883
0.19515011858930487
0.18997441657334663
-0.07911641324974505
0.20989745124643572
0.367537941135973
0.0859288194430845
0.4621108788498416
-0.017803372057005218
0.24426097055894475
0.17374410614548827
0.04468146902133846
0.4143828303198077
0.26058994683105763
0.12697405572090228
-9.121261128952618e-06
-0.06262120083523337
0.3878114817209911
0.4612327293964657
0.0828999022109769
0.48398521916755877
0.22303594211556735
0.20771531872041368
0.259235554665652
0.33154924826047616
0.258302510700842
0.01587342550222476
0.4705870425391577
0.05865808030558839
0.1051801550116511
0.6257155002717192
0.5385957076301696
0.5149795060631868
0.21313148326436127
0.17680562477403766
0.6191790869213329
0.152402178446111
0.14777514614531959
0.6068855233875587
0.24389646297553552
0.5216572670253694
0.5418054726067475
0.5720795633761667
0.1899471957284546
0.4026232554935468
0.2918026989790443
0.225220139523138
0.2161392113855995
0.22063740130237366
-0.12205122641641969
0.2185950619707031
0.18248928601415199
0.4986275573904727
0.16643782220617936
0.2577303319100666
0.3506203715908237
0.18720279004087398
0.32696907252667196
0.01711151549274173
0.46631074990509075
-0.18520782184441353
0.4959779460196424
0.40272332448670967
0.5712578190211748
0.5797679339639789
-0.1006478288234186
0.36406831556456803
0.347376528086529
0.3092939035955177
-0.03882712814122724
0.18992757706565505
0.20416349525591965
0.39647701184964457
0.29627840735657923
0.4652044720736707
0.5730194735638922
0.3544525416612098
0.3538356622207276
0.454593182681084
0.36890185530549
0.07994131498992074
0.26833007769580763
0.11701914989172865
0.4594207374187622
0.5316666358957907
-0.0953751059816691
0.06306658510753022
-0.03206607560793873
0.40594321545966294
0.3597640813375153
0.26325670004512386
0.09057034340758569
0.2930862404757635
0.37691656609252905
0.43096617233412576
-0.027837971694962604
0.2841691373430717
0.22780504324177223
0.20696195465928385
0.43382816282003656
0.19746304475590493
0.135429298847376
0.3161032379039911
0.348024701389002
0.32111434094251773
0.44112442442517363
0.014788330488584411
0.4048531966628895
0.5538093613027979
0.260230304594038
0.496263526849096
0.40663607199959784
-0.19765436361593008
0.1980116479154007
0.5675438388145252
0.41240601793959164
0.07230141316146099
0.25724728866645213
0.2720033832667501
-0.03457974449157741
0.4450771676372474
0.16583709674818364
-0.08256515327186553
0.3177667491769838
0.44342896264263665
0.048306401831094636
0.26690295550737175
0.20479806991607585
0.3686403806287539
0.3979628701848365
0.6166670317146346
0.3834372976836789
0.6644468219088346
0.04109343094133347
0.15210891101625956
0.005972617523065271
0.4160543488406093
0.26628074824376796
0.19178992157093575
0.025710321601511044
0.08996232502778603
0.1887932575448394
0.12839016426852395
0.4852096107610417
0.10370687076057325
0.8410053831033297
0.3232792718550942
0.2128052019834078
-0.09744888922552447
0.2960732615532724
0.14305610019956674
0.46760754966635176
0.5888539985566681
0.18656456543167366
0.41544373927074185
0.3912602407760247
0.6317121828772356
0.4370123370818104
0.1254447126667845
-0.03462158999429793
0.3167785916140536
-0.06729325831021699
0.45564551652388663
0.580563980461436
0.08746663756690706
0.17617914006329155
0.5773975121663999
0.10821639170556929
0.5038376118200689
0.38524139660291523
0.43078009325453115
0.2324779069968637
0.47958708471831935
0.195396167301661
-0.027381562902720757
0.2986065134457844
0.5135425073823303
0.3675224972359922
0.05098957397210779
0.2133157862782331
0.32039825175294834
0.08532555495523919
0.24634198125933132
0.3262366976882624
0.03160735854461699
0.066093732824968
0.012199596971431581
0.3189058082971731
0.48639264727407944
0.17583471249421362
0.47458293759456505
0.35893029394004755
0.5040203105015189
0.07433974050557635
0.2987394500875023
0.04062251514310877
0.3635428149654886
0.2957686475508081
0.3319060848063429
0.25821534925818557
0.20375086971325293
0.23903380705011903
0.30523152978418644
0.2395741507741389
0.4942571868468598
-0.22913615996553438
0.18723345909707562
0.13446557045734603
0.1622208852035226
-0.002783582835812204
0.21359668201683824
0.23239125534125576
0.6933035987263952
0.5562730461172449
0.11231374473391542
0.44878752910136777
0.11927776312837696
0.47267425544585395
0.09383806295740738
0.40090725614663286
0.43034125945611856
0.2186551232790332
0.25824561065620166
0.4093162270579206
0.09335619861807426
0.09832757384134946
0.6322921139017926
0.33355349159322617
0.5617287889754632
0.07891257715081498
0.36053198369393435
-0.058031740351367656
0.1846190332005031
0.3332597988512274
0.2381641823414919
0.17311554737117368
0.2106412577037396
0.33174799380505116
0.17505529068758616
0.2281144155648167
0.22498098292068142
0.321263834374879
0.33192472805296364
0.06845013671902542
0.41567010583152414
0.31832251173051596
0.5257399608757551
0.2596823365303013
0.5009446401265072
0.33648978324577605
0.16832261638114013
0.5671495583051018
0.4715427189993105
-0.14186503597147365
0.4981261562022643
0.07331053218677697
0.5168770246843188
0.45258387853093396
0.22398384905623941
0.42088917871298404
0.3772893416443967
0.12645829252292592
0.3587393055083646
0.4511457202303029
0.5752441787562572
0.47963070017345916
0.43158292133851717
0.35524453653721616
0.4754217154398661
0.5260468607981628
0.4021449475643741
0.3822919524629851
0.05354557887675898
0.3743705831242061
0.5235310937397191
0.5184684431034108
0.44306971888769403
0.34414381707542
0.18478928964482486
0.1948403358041388
0.13759175796453488
0.3300560541825343
0.366614292672058
0.3924003019646536
0.2689946505430053
0.24656393886726702
0.6862239791582669
0.20373183763019798
0.3577806674517597
0.20359483763887953
0.4922826964435273
0.3306746530496927
0.627891762207927
0.3859901685118563
0.1000616132987972
0.2790479520348838
0.40927782593879247
0.4480836987498577
0.60135646965863
-0.08427807280094252
0.5242971503606665
0.5467134496256112
0.5194479373207874
0.18443506913337332
0.5244440192892992
0.37547926563775325
0.06507052540450192
0.2860694591485452
0.2880755878822347
0.25419507047270884
0.47537726454063844
0.28196920120304286
0.30577327061041143
0.26835258305228044
0.4964764485777533
0.13542800955500287
0.3831793851207097
0.7699657551617162
0.20853101710034402
0.4706641159807466
0.5110434990142851
0.5932339592349811
0.3078201952884775
0.10121328706047045
0.4812337646541567
0.293143024588369
0.05602050391769248
0.46200043578023287
0.4205272522092437
0.2165802213892528
0.43754442527567383
0.20493306929179833
0.506732857694577
0.24397716041149706
0.40575559708950343
0.4291116404918069
0.19985007090466667
0.4065979103495323
0.268316898782292
0.04062267492478805
0.17815827419402072
-0.05163388343354086
0.30494721800911756
0.3119417515631068
0.5037663168146858
0.12900811323406908
0.3756653970581012
0.39922812555554055
0.42265186972439667
0.16684941627500482
0.5246887110301679
0.797862132548911
0.3759922669854244
0.4608056870064709
0.3395008086127337
0.44917597327319136
0.25130625085404906
0.5195883911660294
0.08025163703512322
0.5748329952583777
0.1617954896962483
0.2990094133275654
0.4855736763964952
0.6274988042015295
0.5580495352491689
0.5177201792405248
0.29793985992757327
0.3642984191176945
0.22421963529852318
0.5609231248610027
0.7596180983104207
0.3421168748656909
0.17129506248867798
0.5989558697972548
0.29947524484456167
-0.04349410542785709
0.3585297036959776
0.3690930072045135
0.12571860284089015
0.44309102314403176
0.0637862402415737
0.16924280682378506
0.19703669027660903
0.30526337443575374
0.3552974766870191
0.448806022957951
0.2992080584956338
0.18582357959873125
0.5211375479005173
0.45417380560593146
0.05528632414022666
0.6861583925681947
0.5319528294205964
0.3002377335681313
0.29523061259827077
0.3452861543776922
0.185380201144349
0.25754642898410385
-0.018370594919314642
0.3661348970738576
0.4341904567287378
0.22938950506813544
0.4486383065385527
0.4572975986760093
0.23426137414123094
0.2723745672636436
0.4126678565322014
0.3213221015712711
0.07480144989018939
0.33844684914887924
0.10078637158027004
0.25340865599151297
0.06749412117932913
0.3323214053311713
0.6238830364485917
0.4804690924161622
0.2037002602946078
0.029196356811891755
0.4711040786296133
0.06576369590538406
0.06698659331513274
0.33164048716289213
0.747300117467908
0.6167989463225982
0.3666816037188605
0.46065308229811425
0.1112098327052406
0.363405092244452
-0.04895427988373585
0.47106150508942324
0.3099817030447392
0.33496804519134066
0.35732947159022843
0.4512297789584178
0.6029207023002469
0.5403035348621684
0.29562280269225955
0.5592661194597824
0.714547599154755
0.6214962152986396
0.47568966291671344
0.5692028119286335
0.2828323550893726
0.04664712693690709
0.3438643951808003
0.6687849833658482
0.6351639709053856
0.21006228273577782
-0.004879292811124425
0.47871733478291034
-0.15200892192803167
0.35630275179459314
0.6301450786167391
0.2459929188144885
0.526691703469814
0.5251115826088819
0.5270307351332468
0.18720489688350603
0.5294368174642189
0.16780641356378598
0.231671124240234
0.8533719949275149
0.18229891355829525
0.33141269377487903
0.3794791381684666
0.5647039576659729
0.24196021540843102
0.1284166366326588
0.05224379744866792
0.4251214177925208
0.3601681877993002
0.30308926087964544
0.35379304153241736
0.3148137363828213
0.1941137559966265
0.42272647050931134
0.4461749708140132
0.19358243546160941
-0.06649620228991338
0.2529721846121083
0.37353111901931496
0.4989990317688515
0.7057094861913971
0.22144802609750275
0.2504994027031199
0.1885672088450288
0.5266145498553584
-0.12560561980329316
0.5195378958093158
0.26400579647395717
0.3675065669473073
0.1852230127045768
0.22307820765462869
0.5173405561768238
0.22007310355356532
0.5632551429801725
0.5001869118803386
0.4881123481414197
0.2512371426063217
0.39713439074899043
0.2208752252430098
0.6113439544068074
0.2587092251143417
0.4240495171971394
0.3747463149647109
0.5521559796098516
-0.12990822203662838
0.18431970643076057
0.3337066713117547
0.6595141544246861
0.3766658527993983
0.12924007292209336
0.09662549597082754
0.2604597973455305
0.42475565436727136
0.5015421736579724
0.31226090771976955
0.18723339761423569
0.5223250675066055
0.4452224967356798
0.5557727756953305
0.3392405509947317
0.2670980781991654
0.5739697479380055
0.3764920112390155
0.4701192436281311
0.409313566958065
0.4261626519528551
0.38568030218776433
0.6518910065955896
0.5981662725825074
0.4801709531732517
0.2440722744953794
0.21056988080983063
0.5164812578414982
0.08684943049131327
0.4725086352283498
0.3879356771075756
-0.07687719979129531
0.11528471032967957
0.6118228927394601
0.3555238798431949
0.5843463178990451
0.3713399829834019
0.630840976891733
0.2686508887980247
0.20912189280530452
0.7057135954913254
0.5765203232905929
0.4199433706446584
0.4239917940974922
0.6765558070700664
0.18662608173956916
0.5647967513170016
0.2238168470866694
0.3740288381111755
0.8230465989512116
0.27013155505575803
0.8436258053982297
0.5330545449495283
0.1622879804377376
0.42944458707665956
0.3124063145615944
0.37292339881058484
0.18239463374994425
0.09987690613731831
0.28449505966947014
0.23028895788258846
0.5646172589637765
0.0266849781554222
0.5117700891993865
0.25389972045901144
0.14065854193349492
0.47278190211481375
0.5087687686065886
0.4040927015312217
0.6731679328924445
0.3032387482189118
0.38309317739230686
0.37186909367201504
0.4189873181474102
0.7844892033471375
0.18773135185864873
0.5432327668018497
0.714173676295746
0.47226984399271527
0.2248893166236867
0.37765873348549356
0.4686888840221473
0.6531912672894791
0.2652005315562388
0.470570227721995
0.40400386566516444
0.6860392870246781
0.43654742462228824
0.43043649268527173
0.22465140111582763
-0.10951627862629543
0.3239140572650527
0.4611967689377279
0.5840384294481851
0.225699814470825
0.5299597950952452
0.3382777217618795
0.5411891912797974
0.1693586590431504
0.27064892112607986
0.7204705823224248
0.46016971638683746
0.3102763769117185
0.543744179715842
0.5273511735414592
0.32026417701524884
0.4231593549088254
-0.12820253525172592
0.5254197098169164
0.5183911827087909
0.3837555283214849
0.8048272395389928
0.5702009987643347
0.4584466538042316
0.5685424437543496
0.2615886138336645
-0.06810573849331841
0.42840387708968636
0.5851636330654085
0.39697654533960963
0.4655388352081281
0.06563004348156892
0.5572798908260304
0.6156870054703178
0.4282713296187274
0.659404783076937
0.41069833328694577
0.45909232266752126
0.6202117071838199
0.5462999219336625
0.6039551457263461
0.5150132681488341
0.49114563530818295
0.240061038249825
0.19081366261762037
0.39063329060348534
-0.013283311169014544
0.4746323897987206
0.21368153331496215
0.5217111429325675
0.1806388342765804
0.3128425247652834
0.6265268156452154
0.4957630036850662
0.3080880177899228
0.16407034936973613
0.5259789529448667
0.5730398706413918
0.43639271326813384
0.3605281562015487
0.356992368270833
0.27541844315076996
0.2328053840177179
0.27722254158815957
0.5137857482461902
0.4163467310250297
0.45189955450346536
0.49827719027486767
0.5885149922149363
0.20992340068272422
0.21221509531050703
0.5218835130113733
0.34252024609270687
0.2873282868908248
0.5091428050908453
0.6680709778238074
0.5266941745809886
0.24938986806714863
0.5846795578485201
0.9089032070778571
0.027439219624972755
0.4422690907502549
0.5732072850505303
0.666497134025744
0.6833137259948017
0.6445589876895774
0.5572910780252709
0.5950719556898554
0.2578902708866873
0.17196236493053224
0.6459337571568456
0.584755357516108
0.3417927148711865
0.12066374380089079
0.388576253003141
0.6374183352981029
0.14374852845552377
0.8318244045081029
0.46988468995750243
0.542598664728339
0.41415050663193886
0.26699101088230154
0.3087401223147497
0.2364661523104292
0.49457017909132955
0.8202012000554629
0.6913025498178065
0.7174604616523536
0.32334615461419874
0.6256049501849916
0.25269917445150175
0.2421522295129265
0.3667996232235504
0.4764767509605082
0.34263138348739863
0.41338672623252554
0.02258764495909349
0.1490246427863129
0.48075593976102815
0.36340090670265823
0.2012619319748755
0.5426384006236447
0.23797710168971897
0.6623414197116557
0.4126836832399592
0.26746628341641854
0.37322069635214494
0.3703963548457173
0.7839348923257834
0.594347080782728
0.506841064606083
0.6471428056201078
0.4647988728997089
0.42342416916955067
0.3919962532493244
0.8276753109294935
0.3320695770449771
0.6801017946838751
0.45308356527622456
0.5863462288262744
0.65229136745173
0.6907202307827052
0.18835592863430767
0.42323746529187234
0.565144651190709
0.32051566981847207
0.33163838085863556
0.7075901426722877
0.4621586423879338
-0.06123023381804382
0.3155127684870241
0.5153622149854435
0.4138357372135834
0.8977066208010612
0.4881602812405328
0.2943966452338969
0.5792353903734294
0.29758995244246667
0.4027107423843245
0.512118028927107
0.4909508098958522
0.696059977782601
0.3792905597257462
0.7038592668824546
0.5330663173082175
0.8131871904594961
0.7988480000923297
0.5149736379960644
0.39985228649850657
0.2049324659962208
0.5000171720864931
-0.021483140852813054
0.4004295713348322
0.5156383630903596
0.548367254407145
0.3672343267050849
0.7086926861400601
0.7130441974543512
0.9474193863240145
0.5750239139011979
0.5066289970099354
0.2947287458711597
0.15187598309532785
0.7210700498428859
0.4059262561836316
0.38515583978287204
-0.0885771050676577
0.3909686010702632
0.33225337207405914
0.86063935319538
0.5219396657229474
0.6030616359874762
0.4600352576741738
0.4548282809608772
0.23219633739033652
0.5649870253309891
0.8780826270134791
0.24434793124265414
0.6985614512072499
0.29350380211581195
0.6395220925011065
0.1124759430375461
0.6651864491474558
0.12277629738295648
0.38370754699716847
0.2379272791720865
0.6249509614975206
0.5092068551549128
0.4522537954202787
0.2603692379123566
0.677524306233624
0.8045415424171428
0.3758723788494158
0.6324125985241272
0.7778817802284222
0.5276889881500697
0.713365737214597
0.5319149145345126
0.4472485511921432
0.6926318790301172
0.3159095887653148
0.3135175632091034
0.34096227367072307
0.46367562395394285
0.49769961303068183
0.2597450985827095
0.377610312051345
0.44480061726494163
0.3794413919754466
0.381357917881699
0.36862366261184104
0.4614881121616319
0.4587092378615487
0.6041477400974412
0.5839399939184519
0.36357381780624787
0.2833171037589319
0.529431612774459
0.4529834207211993
0.18854520343720155
0.3760776570686836
0.4269661410975937
0.4629346377810045
0.5872096380943237
0.6379980060450046
0.3709165382806532
0.29048230784700924
0.5062702297095055
0.15954899853878052
0.7454127701457798
0.23520781279942699
0.5702208331300334
0.607996130822707
0.7297429854743644
0.37031057148135293
0.8294349092770146
0.24521793618895768
0.5291233653913089
0.4901894660299453
0.3817202888977773
0.5591011844807909
0.4866535878408564
0.3968997792880361
0.28578804255653323
0.39981989179878946
0.3912568997378457
0.12568513658826946
0.44672090816512716
0.5815268265565652
0.7560009022110117
0.511450463394668
0.35896678174918906
0.43286212660601425
0.4971638226484005
0.5370271677061437
0.5854160756064598
0.3293965120532433
0.5609773763029493
0.7009762417714165
0.2660609945373781
0.5061935530877182
0.36843728906307044
-0.020784763515371285
0.18781364665845468
0.7062580259114936
0.2871869717838796
0.6845702896463104
0.8211742748629762
0.41307893062585477
0.5395211031414479
0.45289469065744203
0.4483604074666846
0.35722141828867804
0.3135031830527191
0.37109059665333616
0.6306648212797793
0.3278741568894389
0.7782859419242152
0.07354332435321809
0.2945356431294284
0.009033590907753075
0.5561364996805755
0.32154863591811333
0.8505215707189475
0.10522743605135498
0.08751280646749993
0.31119503807472193
0.7254009485518448
0.259539808936482
0.5395416887032053
0.4717759111280235
0.19504574176283002
0.6139658187155655
0.6759712136265954
0.5084106758755259
0.2879241925726535
0.2464434419953248
0.5635683258647083
0.8526591093365681
0.4637678666050836
0.7949493318837848
0.7106740014669546
0.5925806621704349
0.3763424608218846
0.4188729444158422
0.6161306368689996
0.5641037565827938
0.39207684550604116
0.3712296715135432
0.6438993732196052
0.42390047116864604
0.5820990192221753
0.5688251972758819
0.14103092569906384
0.18948447505846266
0.446208430839499
0.42611395482225667
0.4693795017445591
0.485747159671942
0.5214194930500838
0.3248219719087154
0.36530310884056766
0.2586096115067201
0.6793681272924128
0.2188848038365186
0.6141799503414995
0.36506340442455276
0.7485561141998516
0.844431909943114
0.5279660079023687
0.5186632932146054
0.3256384795929934
0.16882425467177753
0.5181420653764288
0.8408495760383741
0.509246174317668
0.6611301872601745
0.3272281248223111
0.5103372434891366
0.593463837066091
0.4068920675100222
0.8218347994908479
0.2524188958373609
0.8005349470577399
0.6135495611060944
0.560808402074575
0.7486634433367427
0.46885836995356106
0.3637093730500028
0.8338938852877538
0.7395134005009215
0.43166452858915844
0.5041348001941509
0.4301881381744157
0.3967615134777502
0.5637890417971814
0.6615563393799189
0.5774769009388477
0.602183468712193
0.1869448482988076
0.519362456065499
0.5116597430680955
0.5460143895402602
0.4860346466023585
0.7090928248257738
0.5656547855179671
0.47537333537752186
0.14396288440802613
0.48313904798530344
0.3264081266199391
0.3932427754089366
0.750123759220624
0.6481719440615413
0.24298068964993258
0.712544484470929
0.45855154701464373
0.2859018467364278
0.6298685659210147
0.7271842851908431
0.4346434593037941
0.3213559690828207
0.595754332264449
0.5903847940992981
0.4860680402826465
0.38913587382379244
0.9290258990914343
0.5876493975013555
0.1754427552812564
0.2757321303547181
0.5084162979753932
0.5053274112232059
0.7583654042180372
0.8073122003583654
0.2740638629356933
0.5912751488117136
0.5893696883131945
0.39897052032906133
0.34510756487879357
0.8625530954057123
0.4526306498501066
0.35977315482694067
0.3450171494188783
0.32087860437019455
0.32958545963966546
0.329835831515469
0.7486954789142778
0.7107564421643721
0.5534538312128264
0.5291584860215991
0.4912381451100343
0.3435487668134618
0.07002276763220605
0.49657569801732404
0.8138830608554675
0.3917099416515526
0.08103292024104913
0.31084381653360316
0.2923681434544344
0.655263885183982
0.6330467784885921
0.36911992718929987
0.423605113907697
0.3326326540242764
0.5470635532477044
0.41642422788902783
0.3305405928807972
0.16022949372850026
0.2445951439649453
0.5501294845826268
0.7414677771291017
0.8613696549399155
0.18737746385271736
0.36837108300449206
0.6601661038905446
0.6936539205970456
0.44357609172755874
0.18514262176302226
0.5724402142359293
0.5540162656700123
0.25469812383189583
0.5212169776470802
0.6587323103582243
0.6061140829564543
0.7085896607222024
0.7512140695656524
0.485086565108565
0.8113353642924737
0.6391049390218208
0.18042923327871496
0.6619958006047755
0.40141365442388666
0.5622878958828113
-0.022221154759251793
0.31893406901958987
0.5051781358426541
0.48702997351840205
0.6372631787433308
0.8357089677531966
0.11366239628965524
0.32519383411923963
0.48244696226055667
0.6032911086099588
0.6429830546831754
0.7453578222603093
0.3580479976403593
0.6425880078544557
0.3365962631057333
0.597371141719546
0.32998037436884087
0.34509733100797124
0.7771256027389125
0.5517989437246004
0.5871273975606891
0.3394268343038198
0.49924288528260813
0.4504216481682295
0.4672479919222909
0.39646663578577346
0.6083872621070233
1.0166567783999763
0.535754453661978
0.8003528117772616
0.8056771291217947
0.9059832481598653
0.6122756160488981
0.593788927445572
0.5032726037454532
0.13145839911709112
0.5422031986235679
0.5477106129796198
0.6471120097423675
0.3013587969261271
0.5220699181069695
0.3477534888339301
0.4651419626452982
0.5094136531458279
0.8577884705666883
0.5663554510013965
0.7483197248289581
0.6232844510980953
0.3990523499717623
1.1169966426598452
0.2843077739451416
0.8159381301771322
0.4688370212228514
0.4841423258111398
0.8994208666689139
0.8832506294875212
0.9995851596385346
0.46662180024133604
0.5636899959742458
0.2614954734709245
0.5139514909984776
0.5141772891296492
0.4241770648871479
0.29018551638411977
1.184832139880873
0.43500151100131984
1.0897628464029259
0.5427823654409609
0.41527598487856715
0.6430427149934487
0.2552390384084084
0.4399711424029345
0.3541618773607176
0.7184376806189756
0.5303682383545644
0.5525564531012115
0.5737891475498269
0.7895435084439465
0.18785153460644577
0.6699499562028352
0.20152070195186028
0.5740963006280774
0.5599800534501432
0.38124796128960925
0.4720600454679703
0.11891995676014205
0.6460600762025742
0.37215078327898665
0.5931807036536946
0.7537226622049744
0.3668487834164731
0.7540576263884523
0.6657011365124283
0.6843174962384515
0.34733801793286045
0.45286808063838235
0.6833342989469199
0.5803227016355667
0.7916161569231697
0.634204664490748
0.6067494828369304
0.2296573770140537
0.4665093029503067
0.8582545061048485
0.5235793550141021
0.6816262135754281
0.493516014073675
0.735390453781022
0.694120151129684
0.541030653004009
0.5846495971416543
0.14775354772766486
0.30677940140454785
0.9142508466995742
0.6101331848140854
0.6234578193719864
0.20444193406766925
0.5584004848927422
0.7033487743369576
0.36830234123894234
0.7182710610605596
0.33535723899499137
0.4826661383377165
0.6082974264428513
0.32450945054557045
0.1640550684376082
0.4108293661970775
0.6843580673451508
0.5161861016300351
0.5017344448498555
0.2331785805497879
0.8061772404495295
0.4793462420879018
0.747132337667627
0.39599046937213145
0.398039260742425
0.5047387927422788
0.647834001583902
0.7202185431532633
0.2716083471064841
1.1630679467279363
0.5572286778046179
0.1502276495463648
1.0256329157720034
0.3342272046535489
0.6483655094600316
0.3975738108293121
0.9235968378022992
0.37463333695287504
0.7812036203703627
0.7324914317482535
0.528019000539219
0.46433642189565044
0.49444717272525496
1.0331199896445908
0.46216363007073163
0.9169562043982726
0.7017989322627185
0.26444747919979855
0.6130076670849577
0.11533390402369609
0.6573059966711552
0.5464318891554412
0.7830044598525514
0.5453046519308551
0.891307641577372
0.5727695895684375
0.4356388611656662
0.6148447752051187
0.6360516286105278
0.3522725254981215
0.3581470101846794
0.45439556258709746
0.7372185489155109
0.4442608240924125
0.98471522459857
0.8156464035228972
0.4096346858489124
0.5707610615881857
0.35295867087544786
0.4945208143375366
0.5828891872400451
0.6345924886756943
0.4311963750704522
0.6324504123882557
0.13133779854917932
0.5404458354071997
0.45497788575730824
0.8170422274211656
0.8726171604651812
0.45670581277405164
0.22902724727028578
0.3828477074777419
0.5539178179920323
0.7507073890612557
0.5667633566769532
0.5552599636598653
0.7069823888072834
0.46516010108102496
0.5574603681377355
0.4520182101105064
0.15630102293061116
0.12917441066504387
0.7725746101558105
0.5636350927604016
0.9008627650533851
0.8708264772015315
0.15657241998583665
0.7842408859120592
0.7693370319258173
0.24918479283230288
0.49688772061076314
0.27421255830164626
0.5240911424004568
0.4780013481330685
0.13388643214667695
0.4097402577850375
0.27712814319811513
0.5369564057065519
0.5947215239190253
0.8038717285347374
0.7288674199784002
0.6474444850815109
0.23898621713209123
0.46150034051461036
0.4830439222791255
0.7007208379886983
0.5159494443911714
0.7357327256415405
0.5783279090772675
0.7696362727473655
0.5085009244994383
0.76569118953903
0.38283933887868243
0.25054006903886716
0.38253959835019413
0.5769666322630146
0.6415757637237374
1.0567444246188302
0.8481260376841997
0.6140801410462776
0.7671720172581071
0.6220405267337538
0.36714424136872703
0.43615456469090585
0.872918946985449
0.5572988158973683
0.41997935761689686
0.5243134589912586
0.5707902302900036
0.5174971709890134
1.0185118027693552
0.395569302019565
0.596578600376839
0.2778861993863822
0.3436488020161027
0.732544484784385
0.4184084696375916
0.4235044174372552
0.3932989119064705
0.7060247422550168
0.5202173659737372
0.7753571404153191
0.5663564388936757
0.5471053468651431
0.7074580976316611
0.5296384493137598
0.628864434862208
1.1372752982002048
0.3248525705048406
0.3277540110217974
0.5043526719723728
0.4347711983621956
0.3512424209081464
0.40511097515412786
0.7556529218541763
0.5105942810579547
0.658364528835889
0.8409750928360987
0.48103460027829065
0.7374473513073518
-0.04623309536541398
0.5832503085837969
0.31569433429205757
0.563899167579214
0.6483300935663573
0.5623860836515149
0.6219644831130583
0.7199890383995644
0.7059999813057464
0.7611164335795833
0.4125608309033566
0.7355414059177835
0.7734029525961154
0.730298518396139
0.7353296284030811
0.5222565988058476
0.22246458703485922
0.5403260527247481
0.6360455317779927
0.5909673163526241
0.75702910375389
0.2558544511223955
0.4788943706468873
0.33203609051154187
0.6537587639490913
0.8256294435860536
0.8319933031827053
0.5425499384714915
0.43701865605780765
0.10817711713361444
0.798284408896235
0.5270151814536161
0.8627735150741345
0.835213153904709
0.8436919114317691
0.34396356457183563
0.5580252156476724
0.8377328484289568
0.6607216050683142
0.4352762322606716
0.661968444578185
1.138944542343997
0.5101302364786752
0.5941516193735069
0.3400585425330529
0.3096947026144246
1.0383110097804213
0.8036839481582236
0.23597488910966757
0.4629344432858115
0.4717376666087264
0.9760931224558073
0.5294706508510103
0.43484114211310343
0.6188976849158669
0.595214175804675
0.49980956397126836
0.48889198011492485
0.4790485699186441
0.4771375855701694
0.5430766267919106
0.7937306937283584
0.4902353640212382
0.5951934867947534
0.43540449730101327
0.44243208606584444
0.5622996686207177
0.6205416905724562
0.38163863398634656
0.6471515633842093
0.36724246132224403
0.8643846425282258
0.4916828358719489
0.5873191985393329
0.6223160694258534
0.46553502562995996
0.7149220642976418
0.7413025833707335
0.6480539442440325
0.18454865798619968
0.42294891352622355
0.7457370189955558
0.40427423679677343
0.5670476579980412
0.871853855331606
0.4912209134870797
0.9379904665833002
0.6207518936136069
0.4991514597575043
0.6010621451145156
0.49264213032979126
0.5914458405558647
0.6264338182673778
0.5767326327606196
0.5371943475341073
0.5561901049686497
0.3065142939846264
0.5264048843262079
0.652499496879491
0.760741876234538
0.6888011312702232
0.7894351636256167
0.4038463344554586
0.8427181091172335
0.6080123257595981
1.0556658997321484
0.4897125368742878
0.5666316668323332
0.7570829145238708
0.6645560491947204
0.5172738296530155
0.4485085073130015
0.7133596008850437
0.785751692489244
0.588429407656328
0.7847155769615971
0.4067824226208424
0.5200423846357317
0.7339774512466163
0.31425307957583365
0.3559762452171685
0.5501238807998772
0.3590200031492368
0.9017356379543573
0.5936313293631155
0.4739580189216074
0.9063236168252315
0.9167061088447868
1.0710824935436427
0.49647029859254743
0.5407138298969518
0.509671103902737
0.618869420853265
0.7306496754639553
0.4303048418701333
0.552335908251559
0.7564747870755602
0.630908071446481
0.653652788130376
0.8954683812706093
0.33986265594682075
0.3590625918936717
0.8491731174220227
0.47711494940004373
0.376848273068254
0.33769631806127015
0.7273353348230533
0.6761816661775031
0.6584252039064848
0.43384653648002225
0.7948333258117956
0.2770942718863359
0.5801996191762319
0.5535681675167682
0.6000966977392507
0.6566951758778043
0.8547225101785443
0.7038341451095936
0.5931820373952293
0.7812735554597581
0.7860622900566936
0.8948081407718665
0.6594222792853434
0.8530876142630577
0.6375779495058925
0.9258264888085974
0.6664906619892588
0.701363786748239
0.6697952269171208
0.5824159680066269
0.4119335928476232
0.547157266039077
0.45513025368759236
0.5419204333464214
0.4375304579055259
0.7941199520775399
0.7994894614672605
0.6158000708333493
0.1745691343022877
0.5457891655867295
0.6290526030947317
0.6694268874496475
0.548029470625933
0.4307408585001762
0.2889420110605894
0.5606290911094887
0.41516930949606246
0.9127241245329717
0.7529178179459424
0.286778924538925
0.6422328491270479
0.6424244787734427
0.18000747505923176
0.23314488716977155
0.35041461551056413
0.5347590652846141
0.6739387047209873
0.188101032538178
0.6931679779496966
0.34187399300978083
0.6130400073807754
0.6908305342227228
0.5310575513267973
0.5948925376125435
0.6856087109615043
0.27119824805703435
0.8532690069740752
