1005
1005
1005
1005
1005
1005
1005
1005
1005
1006
1007
1010
1012
1016
1018
1021
1026
1035
1043
1054
1067
1082
1097
1113
1133
1152
1175
1194
1203
1199
1173
1122
1050
959
871
794
734
690
659
633
611
594
578
571
566
573
581
596
614
638
660
681
706
723
738
752
766
782
802
825
848
868
884
898
909
918
926
935
955
978
1006
1031
1061
1078
1090
1094
1094
1089
1084
1086
1087
1090
1094
1099
1103
1102
1106
1111
1113
1114
1116
1117
1120
1120
1126
1131
1136
1139
1146
1150
1151
1152
1155
1158
1161
1165
1169
1174
1179
1185
1189
1194
1196
1197
1199
1203
1206
1209
1211
1213
1214
1214
1213
1212
1212
1209
1205
1200
1194
1188
1186
1180
1176
1171
1164
1157
1149
1141
1134
1125
1118
1110
1104
1102
1096
1092
1086
1080
1072
1066
1060
1055
1050
1045
1042
1041
1037
1036
1032
1029
1027
1023
1020
1022
1020
1020
1020
1022
1024
1026
1024
1023
1023
1022
1022
1020
1022
1022
1021
1023
1023
1025
1023
1022
1021
1019
1016
1016
1016
1014
1015
1014
1018
1018
1019
1017
1014
1013
1012
1010
1010
1011
1013
1015
1016
1016
1014
1013
1012
1011
1008
1008
1009
1005
1007
1010
1011
1013
1012
1009
1009
1005
1007
1004
1004
1006
1006
1007
1007
1010
1004
1007
1009
1007
1007
1004
1004
1004
1006
1004
1007
1008
1006
1005
1007
1007
1007
1005
1005
1006
1006
1006
1008
1009
1008
1012
1016
1017
1018
1022
1026
1029
1033
1037
1040
1044
1048
1053
1060
1064
1067
1067
1067
1060
1055
1053
1055
1057
1058
1058
1054
1049
1043
1035
1030
1024
1019
1017
1015
1015
1011
1007
1001
996
995
995
993
997
997
997
998
1003
1003
1005
1003
1002
1001
1004
1014
1030
1058
1096
1133
1175
1215
1251
1284
1316
1340
1355
1360
1354
1338
1308
1263
1206
1146
1092
1050
1021
1006
997
994
990
988
984
977
968
964
962
960
958
958
956
955
954
955
955
954
953
954
953
953
953
951
948
948
947
948
950
950
952
950
949
947
947
947
943
944
943
942
942
940
939
940
939
935
933
929
926
925
922
919
919
917
913
912
909
904
898
893
891
891
888
885
885
884
884
884
883
880
880
881
881
883
887
890
894
897
903
906
913
915
920
924
929
937
942
950
955
959
965
969
973
975
978
980
980
984
986
987
988
990
990
991
994
992
991
988
989
990
989
992
993
991
994
994
991
991
987
989
986
985
986
985
990
992
992
991
991
992
987
986
985
987
986
994
997
1003
1009
1014
1019
1023
1024
1029
1031
1037
1041
1049
1059
1069
1084
1100
1123
1144
1167
1184
1198
1210
1220
1228
1245
1263
1281
1302
1317
1327
1334
1333
1324
1301
1263
1201
1123
1032
932
843
771
715
688
684
693
711
736
764
784
804
822
840
863
884
907
924
933
938
940
940
939
938
940
942
942
943
943
941
942
940
938
938
941
941
946
944
944
943
940
941
941
939
939
939
938
938
940
941
941
940
940
938
937
937
938
938
941
942
943
943
949
950
949
952
954
958
959
963
967
970
975
977
979
983
984
984
986
987
989
990
990
992
995
993
994
992
989
986
984
978
975
976
975
974
969
967
963
961
957
954
954
951
952
950
951
951
951
953
949
948
948
948
946
945
942
944
944
945
946
948
948
949
945
944
941
940
941
944
944
947
949
950
948
948
947
945
942
941
944
944
946
945
949
947
947
946
945
943
942
942
940
938
939
941
943
944
943
942
941
939
941
937
939
939
941
941
942
942
940
942
940
938
937
940
943
946
950
953
958
960
962
964
968
968
969
971
977
985
989
995
1001
1002
997
993
987
983
983
980
984
985
985
984
979
970
964
957
949
944
941
937
935
934
931
929
931
926
925
925
922
924
922
921
923
924
925
927
928
926
930
932
938
952
975
1006
1046
1087
1127
1163
1197
1231
1257
1281
1292
1293
1282
1257
1224
1176
1118
1062
1013
977
952
936
928
922
918
914
908
900
898
894
892
892
891
890
888
885
886
882
881
883
883
884
883
884
883
884
880
877
877
875
876
879
879
881
879
881
880
880
876
875
875
873
873
873
872
873
874
872
870
866
864
862
858
856
855
851
850
849
850
844
843
839
836
834
830
827
823
824
824
824
822
822
823
824
825
827
827
827
833
837
841
849
854
859
863
868
872
877
881
883
887
892
899
903
909
911
912
912
913
913
914
915
915
917
918
919
922
922
921
922
922
919
918
918
918
920
918
920
923
924
924
920
921
919
918
918
918
919
920
922
923
924
924
920
920
917
916
920
922
924
927
931
936
941
944
948
948
952
952
957
961
969
978
987
992
990
988
983
979
975
975
976
977
977
974
969
965
957
949
942
936
931
930
924
924
919
917
918
919
919
918
922
919
919
917
917
919
923
921
923
927
928
932
941
959
987
1024
1063
1104
1146
1182
1213
1245
1269
1287
1291
1285
1269
1243
1204
1155
1098
1043
1000
969
948
935
929
924
919
916
910
904
899
898
899
898
900
898
899
894
895
894
893
893
893
894
895
898
898
894
892
891
890
889
888
890
894
894
897
895
895
895
891
891
887
886
885
887
885
884
887
885
881
880
877
874
871
870
869
867
866
865
863
865
860
862
863
860
857
857
855
856
858
861
864
868
870
874
876
880
881
885
888
895
899
903
909
914
916
920
921
923
926
927
928
931
931
935
937
940
938
940
939
941
942
941
945
949
952
956
965
970
978
986
995
1003
1015
1028
1044
1062
1080
1104
1124
1135
1130
1108
1060
987
899
807
728
668
623
596
578
560
548
537
530
530
533
540
557
576
598
621
645
666
688
704
714
726
743
766
792
820
839
852
860
866
876
894
920
951
988
1019
1040
1054
1058
1054
1051
1047
1045
1047
1051
1055
1057
1061
1064
1065
1068
1073
1079
1082
1086
1087
1091
1092
1095
1098
1100
1105
1111
1115
1122
1124
1130
1135
1135
1138
1141
1146
1153
1157
1162
1166
1171
1175
1178
1179
1179
1180
1178
1176
1176
1173
1175
1173
1170
1166
1161
1154
1145
1136
1127
1119
1113
1107
1099
1093
1085
1076
1070
1061
1052
1044
1037
1030
1025
1020
1014
1012
1012
1008
1002
999
995
992
988
986
987
986
984
986
988
985
986
983
981
981
979
976
978
980
981
982
984
985
985
986
982
982
981
979
980
980
979
979
982
982
983
982
980
977
977
975
974
976
976
977
980
979
978
976
976
973
972
972
970
970
973
972
975
974
977
977
976
976
973
972
971
975
975
977
978
978
976
975
975
973
973
975
976
975
974
976
978
980
978
980
979
977
975
978
978
976
977
979
984
984
984
984
982
980
982
982
986
989
993
1000
1003
1008
1010
1015
1016
1015
1014
1018
1023
1031
1038
1049
1056
1057
1054
1046
1040
1039
1037
1036
1040
1042
1041
1037
1035
1027
1019
1015
1010
1001
997
993
990
986
985
986
986
983
984
984
983
983
984
982
982
983
984
986
987
990
994
1002
1014
1035
1065
1100
1141
1182
1220
1252
1287
1313
1338
1352
1351
1340
1320
1289
1243
1190
1133
1085
1048
1021
1007
996
989
986
978
970
964
959
957
955
955
956
955
956
953
951
950
946
948
950
948
950
949
951
949
950
950
946
946
943
944
943
945
946
946
945
943
944
943
938
938
936
937
934
935
935
935
932
929
925
922
919
915
912
910
906
904
903
902
898
896
892
888
883
881
877
875
876
875
876
876
879
878
879
879
879
883
884
888
893
899
904
911
915
921
927
931
936
941
946
950
956
964
969
973
976
979
985
984
985
986
985
987
989
989
993
993
995
994
994
993
994
992
994
993
995
996
997
1000
1000
998
998
997
997
995
993
994
995
995
997
1001
1000
1000
1001
1002
1002
1003
1004
1008
1012
1018
1024
1031
1036
1038
1043
1049
1053
1060
1069
1081
1094
1112
1135
1158
1182
1199
1217
1227
1236
1245
1259
1277
1294
1314
1329
1339
1343
1337
1319
1287
1239
1169
1084
988
895
815
752
713
696
696
710
728
753
776
794
809
826
845
870
891
914
935
954
960
968
965
963
963
965
967
967
969
971
973
975
972
972
970
972
970
973
975
973
975
976
978
976
975
974
974
972
973
973
976
977
978
978
978
977
975
976
975
976
978
979
979
985
988
990
991
995
997
996
999
999
1002
1007
1011
1014
1019
1023
1026
1029
1031
1028
1028
1029
1032
1033
1033
1038
1037
1038
1036
1033
1030
1027
1023
1020
1020
1017
1016
1014
1013
1012
1010
1008
1002
1001
1000
997
998
997
999
996
1000
998
998
997
995
992
993
992
990
992
992
996
997
998
997
996
997
996
996
995
995
998
1000
1001
1005
1003
1002
1000
1000
1000
1001
999
998
999
1002
1002
1003
1003
1003
1002
1000
1000
999
997
996
999
1001
1001
1002
1003
1000
1002
1000
999
1000
1001
1001
1001
1002
1002
1003
1005
1001
1002
1001
1003
999
1001
1002
1006
1008
1011
1014
1018
1021
1023
1025
1026
1026
1031
1033
1032
1037
1042
1051
1056
1062
1070
1071
1068
1066
1061
1057
1055
1056
1057
1060
1062
1058
1056
1050
1042
1036
1029
1023
1016
1013
1012
1011
1005
1005
1003
998
995
993
994
993
995
1000
999
1000
1002
1003
1004
1004
1002
1006
1011
1020
1041
1072
1110
1149
1191
1226
1259
1290
1317
1338
1349
1351
1339
1318
1288
1243
1191
1135
1091
1052
1032
1014
1007
1003
998
993
986
980
975
973
970
968
967
965
965
965
965
965
967
966
967
966
966
964
963
960
961
960
963
961
963
962
961
961
962
958
957
956
954
953
952
951
950
951
953
952
948
944
942
937
931
930
929
926
925
924
922
920
917
914
912
909
906
903
903
900
899
902
907
908
908
910
911
912
914
918
922
926
930
938
945
947
954
957
961
963
967
973
978
984
989
994
998
999
1004
1002
1002
1001
999
1001
1002
1005
1004
1006
1006
1008
1008
1007
1007
1006
1004
1005
1006
1007
1006
1008
1006
1007
1005
1004
1005
1005
1004
1004
1005
1005
1005
1004
1008
1007
1008
1007
1006
1005
1004
1006
1009
1012
1014
1015
1021
1023
1028
1032
1034
1038
1039
1042
1046
1048
1055
1061
1071
1072
1075
1073
1069
1063
1061
1057
1055
1062
1062
1063
1060
1055
1049
1041
1034
1027
1025
1019
1020
1017
1015
1012
1010
1008
1006
1004
1003
1003
1002
1004
1004
1007
1009
1011
1011
1009
1009
1005
1007
1010
1016
1029
1055
1083
1122
1163
1204
1240
1275
1306
1327
1344
1351
1346
1332
1307
1269
1227
1172
1121
1080
1047
1029
1018
1008
1007
1005
999
994
987
983
978
979
978
978
976
973
973
972
972
972
973
973
974
972
971
971
972
968
968
967
970
972
971
972
970
968
966
964
963
962
959
956
956
960
959
959
955
955
951
949
944
942
940
937
935
933
932
930
929
925
924
920
919
916
916
912
916
919
919
921
924
926
926
929
931
934
936
944
949
954
960
964
967
970
972
972
975
975
977
981
983
984
986
986
988
986
987
986
983
984
985
983
992
994
999
1007
1011
1020
1030
1040
1052
1063
1080
1096
1120
1142
1160
1164
1148
1102
1024
926
821
729
657
606
576
555
544
535
533
535
538
546
558
574
598
621
646
670
690
704
715
728
744
768
792
816
833
846
854
860
869
881
901
930
963
993
1021
1037
1045
1049
1047
1043
1043
1046
1048
1053
1053
1056
1058
1058
1061
1066
1067
1071
1075
1081
1083
1085
1086
1087
1090
1093
1096
1101
1106
1110
1118
1125
1124
1128
1134
1137
1138
1139
1144
1146
1147
1151
1154
1154
1155
1153
1149
1144
1139
1135
1131
1128
1125
1117
1111
1105
1096
1084
1072
1064
1055
1048
1038
1032
1027
1020
1014
1007
1000
992
986
980
972
963
957
952
950
948
946
945
942
938
934
930
926
922
921
921
923
921
920
922
919
919
916
914
911
910
910
907
909
912
911
912
911
912
910
911
910
908
908
904
904
899
899
900
899
902
900
898
897
891
889
889
890
890
890
893
892
889
886
887
885
886
885
885
887
885
887
886
883
883
880
879
877
874
876
877
880
883
886
887
882
879
876
873
871
871
871
870
871
870
870
868
867
864
864
865
863
864
867
865
866
867
866
865
865
868
868
867
866
862
859
858
859
864
868
877
881
881
879
878
878
879
883
891
895
902
908
909
913
911
907
907
907
906
908
906
903
893
889
880
872
864
856
853
851
846
844
843
843
843
843
844
842
840
837
835
832
836
836
836
838
838
842
850
856
880
911
952
999
1043
1088
1128
1165
1198
1225
1240
1242
1229
1194
1143
1076
1001
931
880
850
840
842
846
847
846
838
829
818
811
809
808
808
808
811
813
810
810
806
800
799
797
799
800
802
803
802
804
804
803
801
799
797
795
795
799
798
803
803
800
799
798
796
792
792
785
788
786
786
785
785
785
783
779
775
773
770
763
764
760
759
760
759
756
754
748
748
746
742
740
739
737
737
738
739
739
739
740
741
745
747
750
755
756
762
768
774
780
786
793
798
804
808
812
818
822
828
834
836
844
843
848
853
851
850
848
850
852
851
853
853
855
852
852
852
855
853
853
853
853
855
856
858
861
863
864
864
860
858
855
856
857
858
859
861
859
863
865
863
864
863
864
865
866
868
872
874
875
878
881
885
887
889
891
895
894
897
902
907
915
922
927
930
929
928
923
920
919
921
922
924
926
925
923
915
908
903
896
893
891
887
885
884
880
878
875
874
871
870
870
871
871
872
873
874
876
877
880
880
880
878
883
895
912
942
981
1026
1077
1120
1163
1201
1234
1260
1277
1280
1266
1238
1194
1131
1059
986
936
900
882
875
879
880
879
876
870
867
861
860
861
860
858
857
854
855
854
856
857
860
861
859
857
857
856
855
853
855
856
853
854
855
855
857
854
851
854
852
851
849
851
853
853
853
849
849
844
843
841
838
833
835
832
832
830
831
829
831
828
826
822
819
819
821
823
824
824
826
828
830
833
835
836
841
843
850
855
862
867
874
880
884
886
888
891
891
894
896
898
900
903
904
907
906
905
907
904
903
904
904
908
909
907
911
908
909
912
910
909
908
909
908
909
908
909
913
914
915
917
915
915
914
913
913
915
913
915
917
918
922
921
920
921
922
922
924
925
931
936
941
946
948
950
951
953
956
962
967
976
981
984
986
984
981
979
977
974
976
978
980
980
978
974
967
961
954
948
945
942
939
938
936
937
935
934
934
933
933
935
933
933
931
931
933
935
935
937
937
940
942
946
954
966
990
1020
1062
1104
1150
1188
1228
1264
1295
1321
1336
1339
1327
1304
1269
1219
1156
1089
1035
991
964
954
950
948
947
946
939
932
920
919
921
921
920
920
921
918
915
913
913
913
917
919
922
921
917
919
918
917
917
916
917
919
920
918
917
918
917
914
915
913
911
911
911
911
912
911
912
910
910
909
906
904
899
896
895
893
891
890
890
891
888
886
884
881
878
875
873
872
872
875
877
878
880
883
886
888
888
892
897
903
909
915
920
925
930
934
939
942
944
946
951
955
960
962
967
971
968
970
971
968
966
969
971
974
978
983
988
997
1004
1012
1020
1029
1039
1052
1067
1084
1105
1128
1147
1163
1165
1149
1113
1053
978
898
827
764
719
689
665
647
630
614
599
589
586
589
599
617
632
650
671
694
713
732
744
756
770
785
807
836
863
885
903
913
919
924
935
952
974
1006
1041
1066
1083
1089
1088
1084
1078
1073
1074
1075
1076
1080
1082
1086
1089
1092
1096
1098
1101
1103
1107
1105
1108
1109
1113
1115
1123
1127
1133
1136
1140
1144
1145
1151
1153
1157
1161
1165
1170
1176
1185
1188
1192
1195
1195
1196
1196
1197
1197
1199
1199
1198
1192
1190
1188
1183
1177
1170
1166
1159
1151
1147
1141
1133
1124
1119
1110
1104
1096
1086
1080
1070
1067
1060
1056
1053
1049
1045
1039
1037
1036
1031
1028
1025
1022
1020
1019
1019
1016
1017
1018
1017
1017
1015
1015
1012
1013
1014
1015
1017
1017
1019
1016
1017
1015
1015
1016
1013
1015
1013
1016
1014
1017
1018
1017
1018
1017
1013
1012
1010
1009
1011
1007
1010
1012
1014
1013
1016
1012
1010
1007
1007
1009
1009
1010
1010
1012
1012
1012
1011
1008
1004
1005
1004
1003
1006
1009
1009
1010
1012
1010
1009
1008
1006
1008
1007
1008
1004
1007
1008
1010
1014
1013
1013
1011
1011
1008
1010
1008
1010
1012
1011
1012
1014
1012
1014
1013
1012
1013
1012
1010
1013
1015
1014
1017
1019
1022
1022
1024
1025
1029
1032
1037
1042
1043
1046
1050
1053
1057
1063
1068
1074
1077
1078
1076
1072
1068
1067
1068
1071
1068
1071
1070
1064
1058
1049
1044
1039
1035
1034
1033
1028
1027
1023
1020
1018
1016
1014
1014
1016
1018
1019
1024
1024
1023
1024
1022
1022
1023
1024
1036
1053
1083
1121
1163
1207
1246
1282
1318
1352
1381
1399
1405
1398
1376
1341
1290
1226
1162
1109
1069
1041
1029
1024
1024
1021
1018
1013
1005
1000
997
995
995
993
991
992
989
992
992
992
993
992
991
990
986
989
988
988
986
987
986
987
988
990
986
987
986
986
984
984
981
981
980
981
979
978
978
976
973
970
969
965
964
960
959
958
956
954
953
950
945
938
936
930
928
926
925
922
924
924
923
924
924
925
924
925
926
930
932
938
944
952
957
962
967
973
980
984
992
999
1006
1011
1018
1023
1027
1027
1033
1037
1037
1037
1037
1039
1041
1040
1045
1047
1047
1049
1048
1047
1044
1043
1045
1047
1049
1049
1049
1052
1053
1053
1050
1049
1048
1050
1048
1047
1047
1052
1052
1051
1052
1052
1053
1051
1052
1051
1055
1057
1062
1066
1070
1077
1077
1080
1084
1084
1085
1088
1092
1098
1105
1113
1121
1125
1122
1116
1112
1109
1106
1107
1108
1111
1112
1108
1106
1102
1096
1090
1085
1079
1074
1072
1068
1062
1062
1062
1060
1060
1059
1060
1059
1058
1057
1058
1061
1061
1063
1064
1064
1068
1071
1075
1079
1089
1106
1131
1168
1208
1248
1285
1318
1346
1377
1404
1420
1430
1428
1416
1396
1361
1314
1255
1196
1146
1105
1077
1061
1054
1051
1049
1050
1047
1045
1043
1043
1043
1039
1041
1041
1040
1039
1035
1034
1036
1036
1034
1038
1039
1039
1039
1038
1035
1035
1034
1034
1034
1032
1036
1038
1037
1038
1035
1034
1031
1029
1028
1025
1027
1027
1027
1026
1027
1024
1023
1021
1017
1013
1010
1006
1005
1004
1004
1004
1004
1002
1001
996
994
992
990
990
992
993
996
1001
1005
1004
1009
1011
1014
1017
1022
1027
1034
1039
1044
1050
1057
1062
1066
1067
1069
1070
1072
1077
1079
1082
1081
1083
1085
1086
1088
1086
1085
1082
1079
1081
1081
1083
1085
1086
1088
1088
1087
1087
1087
1085
1083
1082
1082
1084
1083
1085
1088
1088
1087
1086
1085
1083
1082
1083
1083
1084
1086
1089
1090
1090
1093
1097
1099
1100
1102
1106
1111
1113
1118
1121
1126
1133
1139
1144
1152
1154
1152
1151
1148
1145
1142
1144
1146
1147
1148
1145
1139
1131
1121
1115
1111
1106
1105
1101
1101
1098
1094
1089
1089
1083
1082
1082
1084
1089
1089
1089
1092
1094
1094
1095
1092
1090
1088
1091
1102
1120
1143
1176
1215
1255
1291
1326
1356
1387
1411
1430
1437
1439
1428
1407
1374
1324
1268
1211
1166
1131
1108
1094
1090
1091
1090
1088
1083
1076
1069
1065
1061
1061
1059
1059
1060
1059
1061
1062
1063
1062
1062
1059
1059
1055
1056
1057
1057
1059
1059
1060
1060
1060
1059
1057
1057
1056
1054
1055
1053
1051
1051
1055
1056
1053
1052
1051
1047
1044
1044
1041
1038
1036
1033
1033
1030
1029
1026
1023
1020
1016
1014
1010
1008
1006
1006
1008
1010
1008
1008
1006
1004
1007
1008
1010
1014
1019
1025
1030
1035
1040
1043
1048
1051
1055
1060
1063
1069
1075
1079
1082
1087
1089
1089
1086
1091
1090
1088
1089
1090
1093
1096
1098
1099
1099
1098
1096
1096
1095
1094
1096
1094
1096
1093
1097
1097
1095
1096
1098
1097
1095
1093
1090
1091
1093
1094
1097
1098
1098
1100
1097
1096
1094
1094
1096
1095
1098
1097
1101
1107
1113
1114
1116
1119
1121
1122
1124
1127
1133
1142
1149
1158
1162
1163
1160
1156
1147
1144
1142
1143
1145
1145
1146
1144
1140
1134
1129
1120
1113
1105
1101
1097
1099
1097
1094
1093
1090
1090
1087
1087
1084
1083
1085
1086
1087
1089
1089
1089
1092
1093
1091
1092
1093
1101
1115
1137
1170
1203
1242
1279
1312
1343
1371
1396
1414
1423
1426
1420
1410
1391
1357
1314
1260
1210
1166
1133
1108
1097
1091
1088
1089
1086
1079
1075
1066
1061
1059
1057
1056
1054
1053
1056
1055
1057
1056
1054
1055
1053
1051
1049
1045
1048
1046
1047
1049
1050
1051
1052
1052
1050
1049
1044
1045
1043
1043
1041
1042
1042
1042
1044
1041
1040
1037
1033
1028
1028
1027
1024
1024
1021
1021
1020
1018
1015
1009
1009
1003
1000
1001
999
999
999
1001
1004
1004
1003
1006
1007
1008
1007
1011
1015
1022
1027
1032
1038
1041
1047
1048
1052
1055
1055
1060
1063
1067
1072
1076
1079
1080
1081
1081
1080
1080
1080
1080
1081
1082
1083
1084
1086
1084
1084
1086
1082
1081
1080
1078
1080
1082
1084
1084
1087
1086
1086
1086
1082
1083
1080
1081
1079
1081
1081
1082
1082
1082
1081
1082
1080
1079
1077
1078
1078
1079
1081
1088
1091
1096
1099
1102
1105
1105
1108
1107
1110
1116
1123
1128
1139
1144
1148
1147
1144
1134
1133
1128
1128
1131
1133
1132
1134
1128
1123
1116
1107
1103
1094
1091
1088
1087
1085
1083
1081
1077
1075
1071
1069
1066
1069
1068
1071
1073
1073
1075
1074
1073
1071
1070
1072
1072
1079
1092
1113
1145
1181
1217
1255
1286
1316
1346
1372
1394
1409
1416
1412
1399
1384
1353
1313
1260
1208
1159
1124
1095
1078
1069
1068
1067
1063
1060
1054
1045
1037
1034
1033
1032
1032
1032
1030
1030
1032
1030
1031
1028
1029
1027
1027
1026
1024
1024
1023
1024
1023
1023
1024
1025
1023
1022
1022
1021
1019
1017
1016
1015
1016
1016
1016
1014
1013
1012
1009
1007
1003
1000
1000
998
994
995
992
991
988
987
983
981
978
975
974
974
972
970
973
972
970
971
971
971
971
972
977
982
986
991
997
998
1005
1006
1011
1014
1018
1021
1025
1030
1034
1036
1043
1044
1046
1046
1046
1044
1042
1044
1041
1043
1046
1045
1048
1045
1042
1044
1042
1043
1042
1042
1042
1042
1044
1044
1044
1044
1044
1043
1039
1039
1038
1036
1039
1038
1040
1040
1040
1039
1039
1037
1036
1034
1033
1036
1036
1040
1040
1045
1047
1050
1055
1055
1056
1060
1060
1060
1065
1069
1076
1084
1090
1096
1099
1095
1090
1082
1077
1077
1076
1078
1079
1080
1080
1074
1069
1060
1050
1044
1038
1033
1030
1027
1028
1025
1024
1021
1020
1018
1015
1013
1013
1013
1008
1012
1013
1014
1017
1017
1017
1014
1015
1018
1028
1043
1068
1103
1141
1183
1221
1255
1288
1317
1338
1355
1357
1348
1331
1303
1262
1208
1151
1099
1058
1029
1011
1002
1001
1001
999
992
988
982
978
974
974
974
973
970
969
967
965
964
964
965
966
964
963
963
959
959
960
958
957
956
960
959
958
958
957
956
955
951
949
946
949
946
948
946
945
942
940
939
937
932
929
928
926
924
922
921
923
920
918
916
912
909
907
906
904
905
905
905
907
908
909
910
910
911
914
916
922
927
932
935
940
944
948
951
955
959
961
961
965
969
972
973
978
977
980
979
977
978
977
978
979
980
982
984
984
986
989
990
994
999
1003
1009
1018
1028
1040
1054
1068
1081
1097
1115
1134
1152
1164
1161
1137
1089
1013
922
831
748
688
642
614
588
569
552
543
540
544
550
560
573
592
610
631
654
674
690
706
723
735
754
774
790
810
828
843
855
863
873
881
893
909
934
960
990
1016
1037
1052
1058
1057
1054
1052
1052
1052
1056
1058
1063
1066
1069
1071
1071
1074
1074
1080
1084
1088
1092
1098
1100
1104
1106
1109
1108
1112
1115
1120
1124
1130
1133
1139
1145
1150
1153
1155
1157
1161
1160
1162
1164
1169
1169
1174
1171
1171
1165
1162
1158
1150
1146
1140
1133
1129
1124
1118
1112
1101
1092
1083
1077
1069
1061
1053
1046
1041
1035
1031
1029
1022
1016
1011
1004
1001
996
992
990
987
984
983
984
981
978
976
974
971
971
971
971
973
969
971
973
972
973
970
968
969
967
968
968
969
970
972
970
973
972
970
964
967
966
965
964
965
967
964
963
962
960
959
960
958
958
955
955
954
955
959
956
959
957
958
957
955
955
956
956
955
956
958
958
954
952
953
955
953
952
952
952
955
953
956
953
954
953
952
949
950
949
948
950
948
951
952
952
951
951
948
947
948
947
949
948
953
955
960
961
966
969
971
975
976
979
979
982
987
991
998
1004
1008
1011
1012
1009
1005
1000
996
997
999
1004
1006
1004
998
992
985
977
970
966
960
958
951
953
949
948
946
942
940
937
936
937
937
938
939
942
940
941
942
942
943
945
947
957
974
1001
1036
1076
1118
1157
1192
1225
1253
1280
1297
1302
1297
1281
1254
1213
1161
1104
1048
1006
979
959
945
940
939
935
928
921
918
913
910
908
905
904
903
901
898
898
899
900
901
901
897
896
895
892
891
894
892
893
895
894
894
890
892
895
892
891
889
888
884
885
886
884
888
884
882
879
874
871
869
864
860
859
855
852
852
847
844
840
837
832
829
828
824
822
824
823
824
823
824
821
821
820
821
825
829
834
842
845
852
859
865
871
875
879
883
890
896
898
909
916
923
927
929
930
930
930
933
932
933
937
938
937
941
941
943
943
940
938
938
937
938
940
944
945
945
947
946
948
946
948
952
954
956
959
964
964
970
967
975
979
982
990
1002
1014
1029
1056
1083
1108
1132
1153
1176
1198
1218
1237
1253
1272
1289
1306
1314
1307
1285
1237
1162
1060
954
857
779
723
698
696
707
728
751
771
787
802
817
832
849
868
887
905
915
918
918
916
914
915
916
916
919
919
921
920
920
921
922
923
925
922
921
921
921
922
922
923
923
921
923
922
923
923
922
920
921
922
923
924
925
927
927
926
926
926
924
924
924
925
928
931
934
938
942
945
947
947
950
951
954
957
959
967
971
978
980
984
986
985
986
985
984
983
982
981
982
984
982
983
980
977
976
971
967
962
961
959
958
957
957
957
955
955
953
952
950
951
952
954
953
955
955
954
955
953
952
951
952
948
950
949
950
951
953
953
956
959
957
960
959
957
957
958
959
958
961
959
961
962
962
961
959
957
955
956
957
955
958
962
959
962
961
958
956
954
955
956
959
960
963
963
962
961
960
958
958
958
958
960
961
961
962
964
964
963
960
959
957
957
959
959
962
966
968
967
969
971
972
973
975
979
982
984
987
989
994
994
998
1005
1011
1015
1023
1028
1029
1024
1021
1020
1022
1024
1023
1025
1023
1019
1012
1004
995
987
981
977
979
974
972
968
964
960
958
956
958
960
962
963
967
966
967
966
965
964
963
961
967
973
990
1013
1049
1089
1130
1172
1209
1242
1272
1301
1323
1336
1338
1328
1307
1267
1212
1146
1081
1028
994
977
966
966
966
964
960
950
944
936
929
926
925
928
928
927
926
923
923
924
923
923
921
919
921
923
924
925
927
925
925
923
919
918
916
914
914
913
913
915
916
915
915
918
917
914
910
907
899
896
892
893
891
892
894
893
886
885
880
874
871
867
864
864
861
859
861
860
860
856
853
853
852
851
851
857
858
860
864
866
870
875
877
882
888
889
897
903
910
918
925
929
932
938
939
943
946
950
953
956
959
960
964
962
961
962
961
960
960
959
958
958
960
956
958
959
959
959
958
961
959
963
963
962
964
964
967
966
962
964
960
961
958
959
960
958
959
961
961
964
966
966
963
964
964
966
969
972
977
980
985
987
987
988
991
989
997
1000
1009
1017
1023
1027
1029
1024
1019
1017
1013
1012
1013
1013
1013
1011
1008
1005
1000
994
988
984
977
971
967
965
963
960
960
955
956
957
958
957
955
954
954
953
955
957
959
961
966
966
971
982
999
1029
1070
1111
1157
1199
1233
1269
1296
1318
1328
1327
1313
1282
1232
1167
1099
1033
993
965
956
955
958
958
955
947
937
930
926
925
926
928
927
927
926
925
924
925
924
923
925
924
925
925
925
924
923
922
919
917
916
916
916
916
917
919
920
921
918
918
914
913
911
910
910
908
907
907
905
904
899
897
892
888
884
882
881
880
879
878
879
878
877
876
874
873
874
880
886
895
905
916
925
932
939
945
951
961
965
970
977
982
985
987
989
987
980
975
967
963
960
957
955
953
952
949
947
946
944
941
939
938
941
940
940
939
941
942
942
940
943
943
943
943
942
941
942
941
943
946
952
959
971
992
1020
1056
1095
1129
1160
1186
1209
1233
1254
1269
1280
1286
1283
1262
1224
1159
1088
1019
967
937
932
933
941
946
948
945
936
926
920
918
919
919
921
923
921
921
919
919
917
919
917
918
916
917
918
918
919
916
913
914
911
908
911
909
909
911
910
911
909
909
908
905
902
896
898
897
896
896
898
896
895
891
888
886
882
878
877
875
873
874
875
875
872
874
872
870
869
869
871
872
876
880
885
888
892
899
900
903
907
911
916
919
923
930
936
938
941
944
946
946
947
947
948
947
951
952
950
952
952
951
950
950
946
944
946
949
950
949
954
954
950
951
949
949
948
949
947
946
947
948
951
952
952
951
951
951
950
948
950
949
949
950
952
952
950
952
952
950
951
952
952
956
959
962
964
968
976
983
992
998
1011
1024
1037
1053
1073
1094
1115
1136
1147
1146
1128
1088
1025
944
853
766
699
646
604
571
538
514
500
494
495
502
516
534
558
580
610
639
664
687
700
708
722
736
757
777
795
807
820
826
834
846
861
881
905
935
965
988
1009
1022
1028
1026
1026
1025
1023
1024
1026
1028
1033
1036
1039
1044
1048
1052
1054
1058
1059
1060
1060
1064
1067
1070
1072
1080
1087
1091
1094
1097
1101
1106
1110
1114
1120
1124
1134
1138
1146
1151
1156
1159
1162
1163
1163
1164
1164
1164
1166
1166
1169
1164
1159
1155
1150
1144
1138
1131
1123
1118
1113
1106
1103
1096
1086
1080
1068
1063
1056
1050
1043
1038
1032
1027
1022
1017
1013
1008
1003
998
994
990
986
987
986
985
984
985
984
983
978
980
978
978
976
978
979
979
980
980
979
979
978
979
977
975
975
974
976
976
977
978
978
977
976
972
973
971
970
970
970
970
975
972
971
972
967
966
965
965
963
963
963
963
965
965
964
964
962
962
961
961
960
958
961
960
959
962
962
965
965
960
960
960
959
959
960
961
960
962
961
962
961
961
959
956
960
956
956
961
963
961
960
961
960
959
959
959
962
960
963
965
969
969
974
975
979
979
983
983
988
991
993
995
1000
1006
1008
1018
1021
1027
1027
1025
1022
1016
1012
1012
1016
1017
1017
1019
1014
1010
1001
994
988
983
981
977
976
974
971
968
964
959
956
955
953
953
955
958
960
961
962
962
961
961
963
966
981
1004
1036
1078
1121
1162
1200
1235
1266
1292
1311
1319
1318
1303
1276
1229
1170
1103
1046
1006
977
964
959
956
955
949
942
938
932
927
925
926
924
924
921
920
919
918
921
918
920
919
920
917
917
916
913
910
911
912
914
915
915
916
914
912
911
908
908
907
908
907
906
903
902
902
900
898
892
888
883
879
877
875
873
870
868
866
859
856
855
852
848
844
841
838
839
841
842
845
844
842
846
846
848
852
855
860
867
874
882
888
895
903
909
915
920
924
930
935
941
946
953
957
957
961
963
964
962
960
960
960
962
965
966
968
967
965
965
969
967
965
967
967
966
970
971
971
972
970
969
969
967
967
963
966
967
968
970
970
969
971
973
976
976
981
983
987
992
996
1001
1002
1002
1003
1007
1011
1015
1021
1025
1029
1031
1029
1022
1022
1022
1019
1019
1020
1022
1017
1012
1009
1004
999
993
989
985
981
978
972
970
965
963
962
959
961
964
964
965
964
966
965
965
963
964
964
966
971
982
997
1020
1052
1088
1127
1162
1194
1226
1255
1282
1305
1315
1316
1304
1285
1251
1204
1146
1086
1038
1002
979
967
966
967
965
961
952
945
939
932
933
933
936
937
938
939
936
935
932
932
929
930
930
931
931
932
931
932
930
931
930
925
925
926
923
924
927
926
927
927
926
925
922
922
917
917
914
912
913
912
911
909
905
901
899
897
894
893
889
889
890
889
891
889
889
888
887
888
888
890
893
894
898
902
907
912
917
923
926
926
929
933
938
941
946
949
958
960
961
960
963
963
960
960
963
963
967
967
971
970
968
969
967
966
965
966
964
964
966
966
967
967
967
969
967
964
965
962
963
965
965
965
966
965
964
966
965
965
962
961
961
962
964
966
969
972
974
978
981
984
987
989
993
994
998
1002
1008
1014
1021
1027
1031
1032
1030
1026
1023
1019
1018
1020
1022
1023
1019
1018
1012
1005
997
991
986
981
981
979
976
974
969
964
966
962
960
960
959
962
964
967
967
967
969
969
968
969
970
975
986
1005
1034
1069
1108
1149
1185
1218
1248
1274
1296
1308
1312
1306
1293
1267
1230
1177
1121
1069
1027
998
980
967
967
965
964
960
955
946
940
937
935
934
931
931
934
934
933
934
932
933
932
929
928
929
926
929
927
927
928
928
930
931
929
928
925
922
921
922
922
923
922
925
924
924
920
918
917
914
910
908
906
906
904
903
900
899
896
892
888
885
885
881
880
880
880
878
879
878
877
881
881
880
881
882
886
890
896
900
906
910
914
918
924
928
930
932
941
941
949
954
958
962
962
966
967
965
966
965
967
966
968
969
971
972
972
971
970
967
967
965
967
968
969
970
972
973
973
971
970
972
970
969
970
970
971
971
973
972
972
972
972
971
968
967
965
968
971
974
978
979
980
984
987
990
992
996
998
1001
1004
1006
1014
1019
1027
1034
1038
1034
1029
1025
1020
1018
1021
1022
1026
1026
1021
1018
1011
1004
999
991
987
984
982
981
979
973
970
969
966
963
962
960
963
964
964
966
970
969
969
968
965
970
971
977
993
1014
1046
1084
1125
1163
1194
1228
1255
1282
1300
1312
1314
1305
1291
1263
1221
1169
1113
1062
1020
993
976
969
968
966
965
962
955
947
941
940
936
933
934
934
935
936
936
938
938
938
936
938
935
933
934
933
932
934
934
934
934
935
934
934
931
929
927
923
923
923
923
924
927
924
921
919
918
915
914
912
906
909
908
906
905
904
901
897
895
893
890
885
885
885
887
887
887
891
893
893
894
897
900
907
908
914
919
925
932
936
942
947
951
953
956
957
962
964
967
969
972
972
975
975
974
973
972
971
970
969
971
974
975
977
976
974
975
975
974
974
974
974
974
974
975
975
975
976
974
975
971
971
972
970
972
972
974
975
975
977
976
979
979
980
983
986
989
995
999
1002
1006
1006
1006
1012
1016
1019
1025
1032
1035
1039
1037
1033
1029
1026
1024
1027
1024
1023
1026
1022
1017
1007
1002
997
992
990
985
981
978
973
971
970
970
968
970
970
969
971
968
966
966
966
968
970
972
974
975
979
990
1004
1027
1055
1091
1130
1165
1194
1225
1252
1281
1301
1315
1318
1310
1293
1264
1222
1169
1112
1063
1025
998
981
974
970
969
964
956
948
942
940
937
938
938
942
939
939
937
935
932
930
929
930
931
930
932
934
933
935
933
931
929
927
926
927
926
925
926
928
929
927
927
921
921
920
917
918
918
915
914
912
910
909
905
901
899
896
894
891
891
889
886
886
883
882
879
878
876
876
875
878
879
882
886
892
894
899
902
905
908
913
917
923
928
933
940
944
949
954
956
959
961
959
961
960
963
965
967
968
966
965
962
965
966
966
966
966
967
968
969
971
970
970
969
970
969
968
967
968
968
967
968
969
968
970
970
968
967
966
965
966
966
971
974
975
976
981
982
985
989
994
996
1000
1000
1006
1011
1017
1023
1029
1034
1034
1032
1025
1021
1018
1020
1020
1023
1025
1022
1017
1012
1003
996
990
984
981
981
975
974
974
968
966
961
960
960
960
962
961
965
966
964
965
967
968
968
967
969
974
985
1002
1031
1066
1108
1145
1180
1212
1244
1271
1292
1307
1307
1299
1281
1253
1213
1160
1105
1057
1017
989
969
963
960
960
959
955
951
944
940
936
934
933
932
932
932
931
930
931
928
931
928
930
930
925
927
927
925
924
926
927
928
930
929
927
927
925
924
920
922
918
918
921
920
919
916
915
913
909
904
904
900
900
899
897
896
896
894
890
887
886
883
880
879
881
879
880
882
885
887
888
890
891
894
897
902
907
914
921
923
930
935
941
941
947
948
953
955
957
959
962
963
967
968
968
967
966
964
965
964
968
964
965
966
969
971
970
971
968
966
966
967
966
968
968
972
971
969
972
969
970
969
966
966
966
966
966
968
969
969
970
970
971
969
970
975
979
983
988
994
1000
999
1001
1005
1008
1011
1015
1022
1027
1032
1035
1033
1031
1027
1023
1021
1022
1021
1023
1019
1018
1013
1007
1003
997
990
986
981
978
974
970
966
966
964
963
964
964
963
964
964
963
963
961
963
965
966
968
970
980
994
1017
1047
1083
1121
1156
1191
1223
1254
1282
1305
1318
1318
1311
1291
1260
1219
1162
1106
1054
1015
987
974
966
964
962
956
950
941
934
933
930
931
931
933
935
934
933
930
928
926
924
922
924
924
927
925
927
925
924
924
923
921
922
920
920
922
921
922
921
920
920
918
916
913
911
910
907
906
906
905
902
901
896
893
888
886
882
879
880
878
879
879
880
878
878
879
878
878
878
881
884
890
896
901
904
912
917
919
923
927
930
935
939
943
948
953
960
961
967
969
970
972
972
976
978
982
985
989
993
994
995
996
998
1000
1001
1000
999
998
995
996
995
993
994
995
995
994
990
985
981
978
977
975
976
971
972
968
965
962
961
960
961
963
966
966
971
970
968
967
971
967
969
969
974
984
997
1021
1049
1081
1116
1153
1188
1221
1258
1290
1320
1340
1346
1338
1317
1285
1231
1166
1106
1053
1012
987
976
975
972
973
969
962
954
947
943
942
939
941
940
940
940
939
940
938
939
935
934
934
934
933
937
936
936
937
938
936
936
933
930
927
927
927
927
928
929
928
926
922
920
916
913
910
906
905
906
907
905
905
904
899
897
891
890
889
885
883
881
881
881
881
882
881
883
882
885
889
892
895
898
903
910
914
920
923
927
931
936
941
942
945
949
952
959
965
968
970
969
970
969
968
966
965
962
964
964
966
968
966
969
966
966
964
964
967
966
965
965
967
968
968
968
969
966
966
967
967
964
969
968
968
972
971
973
968
963
963
963
961
963
965
965
968
971
968
969
972
971
971
969
969
968
968
972
975
976
976
975
978
977
976
973
975
976
976
981
984
991
993
995
999
1001
1002
1004
1007
1010
1012
1018
1023
1029
1033
1034
1035
1031
1027
1020
1019
1017
1019
1021
1024
1026
1023
1019
1013
1007
1000
994
989
987
984
986
985
984
982
977
974
972
970
971
972
975
975
980
981
982
983
984
983
991
1003
1029
1066
1103
1144
1187
1223
1259
1291
1319
1340
1345
1341
1323
1293
1248
1191
1130
1074
1035
1006
992
984
983
980
975
970
962
953
947
944
946
943
943
943
940
939
936
937
936
936
938
939
938
937
935
934
933
931
930
930
930
932
932
934
934
934
933
933
929
929
927
923
922
921
923
923
922
923
919
916
914
911
907
903
901
899
898
898
894
893
891
886
885
882
881
880
878
878
877
879
880
881
881
883
883
884
884
889
891
896
903
908
915
923
926
928
932
939
941
942
946
950
958
964
971
972
975
975
975
975
972
972
974
976
977
978
979
977
976
975
974
975
974
972
977
979
980
983
983
985
984
983
980
977
974
976
975
976
976
978
978
980
982
980
980
979
981
982
984
989
991
996
1001
1004
1005
1008
1007
1007
1010
1012
1016
1021
1028
1034
1037
1042
1040
1035
1029
1027
1026
1030
1032
1035
1037
1032
1028
1021
1014
1006
999
992
985
982
983
981
979
980
978
977
974
973
972
971
969
971
974
978
978
979
980
977
977
984
995
1016
1046
1088
1132
1175
1217
1253
1288
1317
1337
1350
1348
1337
1314
1275
1216
1150
1086
1033
999
983
972
972
971
968
961
959
951
946
941
943
941
943
943
938
937
937
934
933
935
938
939
939
941
941
937
932
931
928
929
930
930
934
937
938
939
937
934
929
929
928
922
923
922
921
920
920
919
916
914
909
906
901
900
899
898
895
894
896
894
893
890
888
884
882
881
880
880
881
882
886
889
889
893
896
901
905
907
913
915
923
927
931
935
940
942
947
949
951
955
958
961
964
969
970
972
972
974
972
972
971
970
972
974
977
978
983
986
989
994
1000
1010
1019
1030
1043
1058
1070
1088
1106
1128
1149
1169
1177
1175
1151
1108
1043
959
874
794
729
681
639
610
580
559
545
536
535
539
551
565
582
604
628
653
675
695
709
722
735
752
774
800
826
847
860
868
871
879
888
907
927
954
982
1009
1028
1046
1052
1057
1055
1054
1052
1052
1054
1058
1059
1063
1068
1073
1077
1079
1082
1081
1082
1082
1081
1087
1093
1098
1102
1107
1112
1116
1119
1118
1121
1123
1128
1132
1135
1143
1150
1155
1159
1163
1166
1167
1171
1175
1177
1180
1182
1182
1186
1186
1185
1183
1180
1175
1171
1164
1158
1153
1147
1141
1135
1129
1123
1116
1107
1101
1094
1084
1080
1073
1065
1062
1056
1050
1045
1039
1035
1026
1020
1018
1014
1011
1008
1005
1004
1003
1001
999
996
993
992
991
991
991
992
990
991
990
989
990
991
991
990
987
990
988
989
988
991
990
988
988
989
988
985
984
982
982
985
985
986
988
987
987
984
984
984
983
980
982
981
982
981
981
982
982
979
978
977
977
976
977
979
979
979
983
982
980
978
976
975
976
975
976
979
980
981
982
981
981
979
979
978
976
977
977
980
978
978
980
980
980
978
979
978
978
979
978
980
982
986
990
992
993
996
998
1004
1004
1008
1010
1012
1016
1019
1028
1034
1039
1043
1046
1043
1037
1033
1031
1031
1032
1035
1038
1035
1032
1024
1018
1010
1002
998
994
992
990
989
986
983
981
976
974
973
973
974
975
978
980
982
982
982
984
985
989
1002
1024
1054
1095
1138
1179
1216
1251
1284
1313
1338
1352
1357
1350
1336
1306
1260
1201
1139
1081
1037
1008
990
984
978
975
973
966
958
952
948
945
945
945
946
944
942
940
940
937
940
939
939
938
937
939
938
936
934
934
935
934
935
935
937
937
937
936
935
934
929
929
930
928
926
923
924
925
921
920
921
914
914
909
906
907
905
901
900
897
894
890
887
885
879
876
874
873
872
870
871
870
869
869
869
870
870
872
876
878
883
889
896
903
909
918
920
927
932
937
942
950
957
964
968
973
977
980
980
980
983
984
984
985
988
990
990
993
993
991
990
991
991
990
990
989
990
993
995
995
995
996
995
995
993
991
993
992
995
996
997
997
999
999
1000
1002
1002
1004
1006
1011
1018
1021
1026
1027
1030
1033
1032
1035
1038
1042
1052
1058
1062
1060
1055
1052
1049
1049
1048
1050
1050
1048
1044
1037
1029
1026
1020
1016
1008
1007
1002
998
994
990
990
988
989
991
991
995
994
994
992
994
992
993
993
995
995
1005
1018
1039
1067
1102
1143
1179
1215
1248
1281
1310
1335
1351
1358
1355
1339
1315
1276
1221
1161
1102
1058
1023
1002
995
993
997
996
993
985
978
970
966
964
965
965
967
969
968
967
968
965
965
964
962
961
961
961
961
964
965
965
965
962
962
960
960
957
956
961
960
960
961
960
958
957
954
953
949
948
947
946
945
945
943
942
940
939
933
929
927
928
925
923
924
925
926
924
924
923
922
922
924
928
932
935
940
946
950
956
962
965
971
973
974
978
982
986
989
995
995
997
1000
1002
1002
1000
1000
1002
1002
1002
1002
1003
1007
1006
1008
1006
1006
1004
1003
1004
1002
1005
1006
1007
1008
1007
1009
1008
1009
1006
1004
1005
1002
1002
1003
1005
1007
1005
1005
1006
1003
1003
1005
1008
1008
1012
1018
1021
1027
1029
1032
1031
1033
1036
1038
1042
1048
1056
1061
1068
1072
1069
1064
1060
1056
1053
1052
1056
1057
1059
1056
1052
1046
1039
1033
1026
1019
1016
1013
1011
1010
1006
1005
1004
1003
1001
1000
1001
1001
999
1000
998
1002
1002
1005
1006
1009
1003
1010
1016
1024
1045
1068
1103
1143
1183
1216
1252
1281
1310
1335
1355
1360
1353
1341
1320
1284
1238
1184
1132
1087
1052
1030
1015
1009
1004
1001
996
990
983
978
974
971
974
973
973
973
971
967
965
964
966
964
966
967
967
965
965
965
963
962
961
962
962
960
960
962
964
965
963
961
959
957
955
954
953
954
954
953
952
950
947
943
940
938
936
935
933
931
931
929
927
922
921
920
918
916
915
914
915
915
917
919
921
925
928
931
933
937
941
947
951
957
965
970
974
978
981
984
988
988
993
995
997
1000
1003
1006
1005
1001
1003
1006
1005
1005
1004
1003
1004
1005
1008
1010
1010
1010
1008
1009
1012
1013
1016
1023
1026
1033
1042
1054
1061
1076
1085
1100
1111
1126
1147
1167
1186
1197
1190
1157
1103
1019
922
825
748
691
653
628
609
594
587
582
583
587
594
608
626
647
671
695
721
735
745
755
760
769
781
797
819
841
865
885
896
903
912
915
926
939
960
984
1011
1034
1054
1068
1074
1080
1077
1082
1085
1085
1089
1092
1095
1097
1098
1099
1107
1109
1111
1119
1120
1122
1124
1127
1127
1129
1133
1137
1142
1145
1153
1156
1159
1163
1166
1170
1173
1177
1180
1185
1191
1197
1197
1202
1204
1211
1212
1213
1212
1211
1212
1212
1212
1210
1207
1206
1200
1195
1191
1184
1178
1173
1164
1159
1151
1145
1140
1134
1126
1119
1113
1106
1099
1092
1082
1078
1072
1070
1066
1063
1058
1052
1049
1046
1040
1035
1032
1028
1027
1027
1023
1026
1025
1023
1022
1015
1015
1014
1011
1014
1015
1017
1016
1020
1019
1020
1014
1014
1012
1013
1014
1012
1014
1016
1018
1020
1020
1018
1016
1015
1012
1012
1012
1010
1010
1012
1011
1014
1012
1010
1009
1006
1008
1004
1005
1002
1003
1006
1007
1008
1008
1007
1005
1003
1003
1003
1001
1000
1002
1002
1006
1004
1002
1005
1005
1005
1002
1003
1001
1002
1000
1004
1004
1004
1005
1006
1004
1002
1000
1000
1002
1001
1002
1000
1004
1006
1005
1009
1012
1013
1015
1017
1021
1024
1028
1031
1035
1035
1037
1042
1046
1050
1056
1060
1064
1062
1060
1055
1052
1049
1047
1047
1052
1052
1048
1043
1038
1032
1027
1023
1020
1015
1014
1008
1004
999
995
990
987
988
991
993
994
996
996
996
997
995
995
993
996
1006
1019
1041
1074
1115
1157
1196
1233
1268
1300
1327
1345
1353
1347
1334
1306
1265
1210
1146
1091
1047
1019
1000
991
988
986
984
979
972
966
960
957
955
953
954
952
949
950
949
948
952
950
949
949
950
947
947
947
946
944
946
946
948
946
946
945
945
943
942
941
941
939
942
939
941
940
937
936
930
927
924
922
919
914
913
908
907
905
901
897
893
890
887
882
878
877
880
879
878
876
877
877
877
875
875
876
880
884
890
896
904
908
914
919
923
928
933
938
942
947
954
960
967
971
976
978
980
980
982
985
985
988
987
988
992
991
993
991
990
989
988
987
987
985
989
991
994
995
994
996
995
993
992
992
990
989
990
990
994
992
993
994
993
995
995
996
999
1008
1012
1017
1022
1025
1026
1030
1030
1028
1029
1031
1034
1039
1045
1050
1053
1049
1046
1037
1035
1032
1033
1033
1035
1036
1036
1032
1027
1021
1017
1014
1007
1004
1001
997
996
993
991
988
988
986
988
984
984
986
987
988
987
991
991
990
991
995
1004
1014
1034
1062
1099
1146
1190
1230
1267
1300
1332
1352
1360
1357
1339
1304
1256
1193
1123
1068
1026
1005
995
993
994
995
992
985
977
968
963
961
962
964
965
965
966
963
960
958
955
954
953
954
953
957
957
958
956
956
956
955
956
956
957
957
957
957
956
956
954
953
950
950
945
943
942
938
938
939
940
938
934
930
929
924
923
920
916
916
917
915
915
916
914
911
909
907
907
908
911
913
917
919
924
927
930
934
935
940
945
946
951
956
963
968
974
978
981
983
985
984
982
985
986
987
988
989
991
990
989
989
985
984
983
983
986
986
989
992
991
991
989
988
988
988
984
984
985
985
987
988
992
992
991
993
992
990
987
987
986
987
994
997
1002
1007
1012
1016
1018
1021
1022
1023
1026
1026
1030
1035
1041
1046
1049
1048
1041
1035
1032
1028
1028
1030
1031
1033
1028
1025
1023
1019
1012
1006
1003
1000
997
996
995
991
992
987
988
988
991
990
990
989
988
990
993
993
996
999
1007
1022
1043
1076
1113
1154
1194
1231
1265
1297
1330
1354
1370
1378
1371
1353
1320
1267
1203
1133
1077
1032
1008
997
992
998
995
992
984
974
967
963
961
961
963
962
965
963
957
957
954
953
954
955
955
958
957
958
957
955
955
955
952
952
951
951
951
951
953
952
951
951
948
949
945
943
941
941
939
940
942
941
940
936
933
931
927
926
922
920
917
917
914
908
906
906
904
902
901
900
897
901
902
907
910
912
916
920
920
921
929
930
937
940
949
955
962
965
967
974
976
981
981
981
986
988
992
993
995
996
997
998
995
994
994
991
993
993
995
996
998
999
998
998
997
997
997
995
998
999
999
998
999
1001
1001
999
996
994
994
991
994
994
999
1001
1006
1008
1010
1010
1012
1016
1019
1021
1027
1028
1033
1035
1037
1039
1041
1044
1047
1052
1056
1055
1051
1045
1041
1041
1042
1045
1044
1042
1038
1034
1026
1022
1019
1016
1013
1011
1010
1006
1003
1002
996
993
992
992
993
996
996
998
1001
1002
1003
1003
1001
1000
1003
1008
1023
1043
1075
1113
1156
1198
1233
1269
1301
1333
1358
1372
1376
1367
1350
1314
1264
1193
1128
1075
1035
1008
1000
996
996
995
994
990
982
977
974
973
967
971
970
970
968
966
970
967
968
969
967
968
966
967
965
965
963
966
962
966
967
966
967
967
965
966
962
961
960
959
959
959
961
960
959
956
955
952
946
944
941
941
940
939
936
934
929
928
923
921
920
921
921
920
921
923
923
923
925
926
929
930
933
935
939
945
952
953
961
965
969
975
976
980
983
988
990
995
997
1002
1002
1006
1008
1007
1005
1005
1006
1006
1006
1006
1007
1007
1011
1008
1006
1010
1007
1005
1002
1005
1002
1004
1007
1009
1012
1010
1012
1012
1010
1009
1006
1007
1007
1009
1010
1013
1013
1012
1011
1010
1010
1011
1014
1019
1029
1041
1058
1074
1091
1106
1121
1136
1159
1183
1207
1234
1266
1299
1334
1365
1384
1398
1406
1410
1419
1424
1436
1440
1443
1443
1442
1439
1432
1421
1409
1390
1362
1333
1305
1277
1257
1230
1204
1176
1145
1112
1082
1053
1026
1002
977
957
940
929
926
923
921
918
914
908
903
897
890
886
880
877
874
876
875
871
866
862
858
856
848
842
839
838
838
836
834
834
832
828
821
816
813
809
808
803
800
802
799
797
795
793
793
791
788
789
790
792
794
797
801
806
808
814
816
821
829
833
841
846
853
863
873
881
889
897
903
911
912
921
928
937
944
950
957
960
965
967
969
971
973
978
979
981
986
988
991
993
992
995
994
992
992
992
993
991
993
995
997
998
994
993
995
991
992
991
990
992
993
995
998
998
998
999
996
996
994
994
995
996
997
998
1000
1000
1000
999
998
997
996
996
997
997
999
1000
1001
1003
1003
1002
1001
1002
1000
999
1000
1003
1004
1005
1007
1009
1011
1011
1011
1016
1018
1022
1026
1031
1036
1039
1043
1044
1047
1048
1052
1054
1058
1061
1063
1064
1063
1059
1058
1054
1053
1056
1054
1053
1049
1047
1043
1039
1037
1035
1035
1032
1034
1035
1035
1036
1038
1043
1047
1058
1071
1086
1100
1118
1135
1153
1176
1190
1197
1187
1159
1110
1041
958
876
811
762
734
715
696
671
642
617
602
599
604
617
636
660
693
732
778
819
860
900
932
960
975
987
991
995
997
997
1000
1002
1007
1010
1016
1018
1022
1025
1028
1029
1031
1031
1029
1030
1032
1033
1035
1039
1040
1042
1044
1045
1046
1050
1049
1049
1049
1050
1054
1055
1059
1063
1065
1066
1067
1068
1070
1068
1071
1074
1076
1081
1085
1090
1094
1099
1101
1105
1108
1110
1115
1118
1125
1128
1132
1136
1139
1140
1142
1141
1139
1139
1140
1138
1138
1135
1130
1130
1125
1123
1116
1111
1105
1099
1092
1086
1080
1076
1071
1068
1066
1062
1059
1056
1055
1056
1058
1060
1065
1072
1078
1090
1103
1115
1128
1135
1138
1133
1115
1085
1042
987
919
852
786
726
677
632
592
557
531
516
516
529
549
570
593
615
638
663
689
714
736
754
771
788
801
814
825
841
858
875
893
924
958
992
1024
1048
1066
1074
1080
1078
1081
1081
1083
1082
1081
1082
1084
1088
1093
1097
1102
1103
1105
1103
1104
1104
1105
1107
1110
1114
1118
1120
1124
1124
1125
1126
1128
1129
1131
1137
1137
1143
1145
1149
1153
1156
1159
1160
1156
1161
1163
1171
1172
1174
1175
1181
1182
1180
1180
1179
1177
1175
1172
1169
1165
1163
1159
1155
1151
1146
1140
1132
1126
1118
1109
1104
1098
1092
1088
1080
1072
1067
1061
1057
1053
1048
1043
1040
1035
1032
1031
1030
1029
1025
1025
1020
1018
1017
1014
1015
1016
1016
1016
1017
1017
1018
1017
1016
1015
1013
1012
1011
1012
1016
1015
1016
1017
1015
1013
1013
1010
1008
1007
1004
1006
1006
1007
1008
1006
1006
1003
1001
999
999
997
996
998
998
999
997
997
995
996
995
993
994
993
993
994
994
993
993
994
991
993
991
987
985
987
987
984
988
988
989
988
989
989
987
986
984
985
984
985
983
985
987
984
983
986
983
982
981
980
981
981
985
984
984
985
986
985
982
983
983
981
981
981
981
982
985
985
984
983
982
981
982
982
985
988
990
994
999
1003
1005
1008
1012
1010
1012
1014
1016
1023
1031
1038
1044
1048
1045
1043
1037
1033
1029
1030
1030
1032
1034
1030
1029
1023
1017
1011
1003
999
993
991
985
983
982
978
977
975
973
972
972
973
972
970
972
972
975
977
977
981
989
1004
1024
1056
1098
1142
1182
1225
1264
1302
1335
1354
1358
1356
1337
1299
1254
1189
1124
1066
1024
995
981
974
972
970
964
957
951
944
940
937
939
941
941
940
939
935
932
928
930
927
929
929
929
932
932
932
931
929
928
923
925
923
923
922
920
921
920
920
918
919
915
913
912
913
909
909
908
906
903
902
896
895
891
888
884
879
873
873
869
867
865
864
860
859
857
853
851
851
853
854
856
858
859
864
869
871
876
880
882
894
900
905
911
918
925
930
935
941
945
948
950
954
957
963
963
966
968
968
970
969
968
968
967
964
965
968
969
975
976
980
979
978
976
975
972
968
970
969
973
977
975
974
976
976
975
977
978
979
986
988
995
1001
1007
1012
1017
1020
1024
1027
1032
1040
1047
1056
1072
1089
1110
1137
1157
1178
1192
1206
1217
1233
1255
1274
1294
1313
1327
1334
1338
1334
1315
1279
1221
1140
1040
939
850
775
727
701
694
700
718
739
763
782
801
817
836
854
875
896
915
932
942
945
945
944
942
942
941
942
945
945
945
944
946
946
943
944
945
942
945
947
948
949
948
947
947
945
945
945
946
943
945
945
947
948
945
947
946
946
946
946
949
951
955
956
959
964
963
964
964
965
967
970
974
975
982
986
992
998
1000
1002
1002
1003
1004
1003
1001
1002
1003
1005
1007
1008
1004
1005
1002
999
994
992
990
987
983
982
980
979
976
975
972
969
969
968
970
970
971
972
970
970
972
972
974
971
969
968
967
970
972
975
975
978
979
978
977
977
972
971
973
970
974
977
981
982
982
984
980
976
973
973
972
974
974
978
981
984
985
983
982
979
975
976
976
975
974
975
977
981
982
979
980
982
978
979
977
980
982
987
992
996
999
1003
1006
1007
1011
1009
1011
1013
1019
1023
1030
1035
1039
1037
1036
1028
1025
1022
1022
1022
1024
1025
1027
1021
1017
1011
1005
1000
994
992
988
987
984
982
982
978
975
974
972
972
973
972
973
972
975
977
977
979
981
985
996
1013
1041
1082
1128
1176
1221
1261
1299
1332
1360
1376
1374
1364
1336
1290
1223
1151
1084
1033
1003
988
984
985
984
979
972
962
955
949
945
947
950
951
951
951
948
944
943
943
944
944
943
945
945
947
947
947
944
943
942
940
941
939
943
940
940
941
935
937
936
933
934
931
929
929
930
930
928
927
927
922
920
914
912
907
908
906
906
903
901
899
894
893
890
885
886
883
879
883
880
882
885
886
889
893
894
896
901
906
911
918
924
928
934
940
943
950
953
957
961
965
971
973
976
979
981
982
984
984
983
984
981
982
983
983
982
982
987
987
985
986
983
984
986
986
986
987
988
988
988
992
992
992
990
988
988
986
988
988
991
991
994
999
997
999
1001
1005
1007
1010
1014
1018
1021
1023
1025
1028
1029
1029
1034
1037
1042
1043
1042
1038
1037
1035
1031
1033
1035
1034
1035
1032
1027
1022
1018
1013
1009
1007
1006
1003
1001
998
995
992
990
988
986
989
991
993
995
996
995
996
997
996
995
994
999
1007
1025
1048
1082
1120
1159
1200
1233
1267
1298
1324
1352
1367
1374
1374
1363
1342
1304
1248
1182
1116
1065
1029
1006
998
996
998
999
996
989
983
976
970
968
965
966
968
970
972
973
972
971
970
968
968
966
963
965
966
964
966
965
968
968
968
966
963
963
961
963
964
961
962
962
963
962
963
960
958
955
952
954
952
952
950
950
948
945
944
941
937
935
933
930
930
929
929
933
931
930
930
928
928
928
928
932
935
939
944
946
951
954
958
961
965
970
972
976
982
986
989
993
997
998
1002
1000
1004
1005
1005
1006
1008
1010
1011
1013
1013
1014
1015
1014
1017
1017
1022
1026
1029
1037
1045
1055
1062
1074
1084
1095
1109
1122
1136
1157
1177
1199
1213
1210
1188
1137
1062
970
873
795
733
692
661
640
626
616
609
605
605
608
619
631
647
664
685
711
735
758
776
789
799
813
828
846
864
877
885
898
907
920
935
955
977
1001
1021
1046
1067
1084
1093
1100
1102
1104
1105
1101
1103
1107
1109
1112
1117
1120
1123
1126
1132
1136
1138
1138
1143
1146
1147
1150
1153
1154
1159
1163
1166
1172
1177
1179
1181
1185
1189
1192
1197
1201
1204
1209
1213
1216
1224
1226
1229
1229
1230
1227
1227
1229
1229
1231
1227
1227
1225
1223
1216
1210
1207
1201
1194
1188
1180
1179
1174
1166
1160
1151
1146
1138
1131
1120
1114
1112
1106
1099
1096
1092
1089
1086
1081
1074
1070
1064
1062
1059
1055
1054
1054
1052
1050
1048
1047
1044
1043
1042
1040
1039
1039
1041
1041
1044
1045
1042
1042
1043
1043
1037
1036
1039
1039
1041
1039
1042
1041
1043
1043
1040
1037
1036
1032
1035
1037
1035
1039
1037
1037
1036
1039
1032
1030
1030
1028
1030
1031
1031
1032
1032
1033
1032
1030
1030
1031
1027
1025
1028
1026
1023
1030
1031
1030
1029
1026
1024
1023
1023
1021
1021
1024
1023
1026
1025
1026
1024
1024
1022
1024
1023
1024
1024
1022
1023
1027
1028
1028
1028
1029
1026
1026
1027
1030
1031
1033
1035
1041
1046
1050
1054
1058
1059
1063
1063
1065
1067
1072
1078
1086
1093
1093
1093
1089
1083
1080
1075
1074
1076
1078
1077
1075
1073
1067
1057
1053
1049
1045
1042
1036
1034
1033
1027
1027
1027
1025
1023
1025
1024
1023
1023
1025
1025
1027
1028
1033
1034
1036
1041
1052
1073
1104
1138
1179
1218
1258
1295
1329
1360
1386
1399
1399
1386
1362
1322
1266
1205
1147
1101
1068
1046
1036
1029
1026
1019
1014
1007
1001
1000
996
995
995
995
997
997
996
994
993
991
991
989
988
991
993
992
991
991
991
988
988
986
984
983
982
984
986
987
987
983
980
980
976
972
970
968
969
969
969
967
966
960
960
953
948
943
941
939
932
931
931
932
929
926
924
919
915
912
911
911
907
908
911
914
915
919
921
923
925
928
931
935
943
948
955
962
969
970
978
982
983
986
990
997
1003
1006
1012
1014
1019
1019
1021
1020
1020
1023
1021
1023
1023
1025
1026
1025
1026
1025
1024
1026
1025
1023
1023
1023
1021
1024
1022
1024
1029
1027
1027
1028
1026
1024
1024
1024
1025
1027
1030
1033
1038
1041
1046
1051
1056
1061
1064
1068
1072
1075
1078
1081
1086
1090
1099
1106
1117
1128
1138
1147
1161
1177
1192
1208
1225
1241
1256
1274
1288
1298
1311
1322
1336
1344
1350
1345
1325
1290
1232
1151
1059
964
878
808
765
739
731
742
762
784
806
824
836
849
863
880
901
927
949
969
984
990
993
992
991
990
988
990
992
995
996
999
999
996
996
996
994
993
992
996
995
998
999
998
1002
998
998
999
997
995
996
995
996
998
998
1001
1004
1001
1003
1003
1003
1002
1003
1009
1008
1013
1016
1020
1022
1023
1026
1032
1033
1035
1036
1044
1046
1048
1050
1054
1059
1059
1060
1061
1058
1055
1055
1055
1053
1053
1053
1052
1048
1045
1040
1038
1032
1029
1028
1023
1022
1022
1022
1019
1021
1019
1019
1016
1015
1014
1014
1013
1013
1012
1013
1013
1013
1014
1014
1012
1012
1009
1012
1013
1015
1018
1017
1019
1019
1018
1016
1016
1015
1012
1011
1011
1012
1011
1013
1015
1014
1017
1019
1016
1014
1013
1011
1010
1011
1012
1012
1015
1016
1016
1016
1015
1016
1014
1014
1014
1016
1018
1019
1022
1024
1028
1031
1034
1038
1038
1039
1043
1046
1049
1051
1051
1055
1058
1063
1065
1068
1068
1066
1061
1055
1052
1050
1055
1056
1056
1053
1053
1046
1041
1036
1032
1029
1029
1028
1025
1021
1019
1014
1012
1005
1001
997
999
1000
1004
1004
1006
1009
1009
1012
1012
1012
1011
1015
1014
1022
1034
1057
1094
1136
1176
1219
1253
1287
1317
1344
1371
1385
1390
1383
1366
1332
1281
1218
1149
1089
1047
1025
1013
1006
1012
1010
1008
1004
993
985
979
978
975
973
975
975
976
977
976
977
974
974
971
969
966
965
967
964
963
967
968
969
970
966
966
964
962
960
963
962
962
961
961
962
959
956
956
950
947
945
941
938
936
934
933
931
926
925
919
917
911
907
903
902
900
899
899
901
901
902
903
902
902
905
909
914
918
922
928
936
941
948
957
960
965
968
972
975
979
981
987
989
994
994
995
995
994
995
994
993
995
995
999
1001
1002
1002
1001
1000
1000
998
1000
1000
1001
1002
1000
1003
1000
1002
1002
1003
1001
1003
1004
1002
1003
1004
1004
1003
1003
1002
1004
1004
1005
1008
1013
1015
1022
1027
1031
1034
1036
1036
1038
1037
1036
1037
1039
1041
1047
1054
1054
1053
1049
1044
1039
1037
1036
1037
1037
1038
1038
1035
1031
1026
1022
1020
1016
1014
1011
1007
1005
999
999
999
1001
1000
1001
1001
1003
1001
1002
1001
1003
1004
1004
1006
1016
1031
1054
1090
1130
1174
1217
1257
1295
1330
1359
1377
1387
1381
1363
1331
1280
1211
1142
1079
1038
1014
1003
1002
1003
1006
1003
999
991
985
978
972
971
968
970
975
974
972
970
969
969
968
965
963
967
966
970
968
971
974
970
971
967
966
962
960
961
960
959
958
960
960
958
957
958
956
953
951
950
947
945
947
946
943
941
938
937
933
932
928
927
924
923
924
922
921
919
919
916
916
913
912
913
912
913
917
925
926
927
931
937
940
943
946
951
955
961
969
970
975
978
983
982
984
986
986
987
990
994
993
994
995
995
994
993
991
992
993
995
997
1002
1005
1009
1014
1021
1025
1033
1041
1054
1065
1079
1091
1107
1129
1151
1178
1197
1209
1205
1182
1130
1055
957
861
781
719
678
647
623
606
593
588
588
593
602
617
637
660
686
712
734
752
765
774
789
805
827
844
855
864
872
882
896
911
932
952
976
1000
1023
1045
1060
1072
1076
1076
1077
1077
1075
1076
1076
1082
1085
1090
1095
1097
1101
1105
1106
1110
1112
1114
1117
1118
1123
1123
1128
1136
1141
1146
1149
1153
1154
1157
1163
1164
1171
1176
1179
1185
1191
1196
1199
1200
1201
1202
1201
1199
1198
1196
1198
1194
1192
1186
1178
1176
1166
1158
1151
1141
1133
1126
1123
1117
1113
1108
1100
1093
1088
1081
1073
1065
1057
1054
1049
1047
1043
1043
1038
1034
1029
1024
1020
1016
1011
1011
1011
1012
1013
1017
1015
1017
1016
1012
1010
1003
1001
999
1002
1006
1011
1016
1017
1013
1012
1008
1004
1002
1003
1004
1002
1003
1003
1007
1008
1007
1010
1009
1005
999
998
998
1000
1001
1003
1002
1000
1001
1001
1000
1000
997
997
994
994
996
995
997
999
999
999
999
1001
1001
999
997
995
993
993
993
999
1000
1005
1005
1007
1006
1003
997
991
986
985
989
995
1002
1005
1004
1001
1000
999
998
997
997
998
999
999
1000
1003
1004
1009
1012
1016
1017
1017
1020
1023
1028
1036
1042
1049
1053
1061
1064
1061
1056
1052
1046
1045
1043
1044
1045
1049
1053
1055
1055
1051
1049
1039
1031
1024
1021
1015
1012
1013
1009
1003
997
992
988
991
995
996
992
992
994
997
1001
1004
1000
997
990
987
985
992
1008
1031
1061
1094
1131
1172
1212
1245
1274
1303
1329
1348
1356
1351
1338
1306
1258
1196
1131
1075
1037
1013
993
985
985
981
978
971
964
960
951
941
929
921
921
924
930
934
935
936
934
934
936
939
938
935
931
927
926
928
932
934
932
924
920
916
911
911
911
909
913
912
913
913
912
908
901
900
897
891
888
886
888
890
891
891
884
874
862
856
858
863
866
864
856
845
834
826
823
826
840
856
865
861
852
842
834
831
835
842
854
858
862
866
867
868
867
872
879
889
906
918
926
929
928
928
930
929
926
929
944
955
961
957
952
945
943
940
938
941
949
954
959
958
959
954
950
950
944
941
936
943
955
965
971
966
961
958
955
954
952
952
954
955
955
960
964
970
979
984
982
980
977
982
987
997
1012
1017
1021
1019
1019
1024
1026
1031
1033
1034
1039
1043
1052
1066
1083
1100
1114
1126
1134
1143
1154
1171
1194
1215
1236
1254
1267
1277
1285
1284
1274
1252
1212
1157
1086
1010
932
860
806
760
726
705
696
696
708
730
751
775
798
822
839
850
866
881
893
893
894
895
905
921
936
949
951
949
952
958
961
960
956
955
954
955
956
955
950
945
940
942
951
964
981
994
1001
995
972
949
931
928
933
940
950
958
967
976
978
979
982
983
978
967
954
946
947
953
961
972
976
980
979
978
983
987
993
996
1000
1004
1003
1005
1011
1017
1022
1022
1022
1020
1021
1022
1025
1024
1027
1030
1028
1027
1023
1022
1021
1018
1015
1012
1007
1003
997
1001
1007
1011
1009
1001
988
976
972
975
983
986
988
986
985
985
985
985
992
992
996
995
995
992
993
993
997
997
1003
1005
1005
1002
1000
997
999
1003
1003
1006
1008
1009
1013
1009
1008
1010
1012
1013
1017
1017
1020
1022
1018
1017
1012
1014
1018
1021
1022
1018
1015
1014
1015
1022
1024
1027
1030
1033
1036
1038
1047
1054
1056
1058
1058
1060
1062
1066
1072
1078
1083
1084
1084
1078
1075
1077
1077
1079
1078
1077
1074
1072
1068
1061
1051
1044
1037
1034
1030
1030
1028
1026
1024
1024
1024
1024
1023
1023
1024
1025
1023
1023
1019
1018
1021
1027
1040
1056
1077
1105
1140
1180
1220
1259
1297
1332
1363
1385
1398
1398
1386
1365
1322
1268
1205
1143
1091
1057
1039
1032
1032
1031
1027
1021
1009
993
979
969
965
966
973
981
988
992
996
991
985
976
967
960
957
959
960
967
974
976
977
973
971
969
966
964
966
966
965
968
970
972
976
978
978
978
969
963
954
949
949
950
953
949
949
946
945
942
937
932
928
922
920
926
931
934
933
930
923
919
914
919
916
916
920
925
934
940
946
953
958
965
971
971
970
975
977
984
989
998
1007
1015
1017
1018
1016
1017
1015
1017
1021
1026
1030
1028
1027
1024
1020
1016
1023
1027
1031
1032
1032
1032
1032
1032
1032
1028
1021
1019
1023
1027
1029
1033
1034
1036
1034
1034
1035
1038
1038
1039
1035
1035
1034
1034
1034
1040
1046
1050
1057
1061
1063
1066
1071
1068
1066
1063
1063
1073
1084
1097
1108
1110
1104
1096
1086
1080
1082
1088
1093
1092
1089
1085
1076
1069
1062
1058
1055
1057
1059
1059
1051
1043
1039
1035
1036
1036
1041
1043
1042
1040
1034
1031
1032
1038
1041
1045
1044
1043
1047
1058
1080
1115
1158
1207
1251
1287
1323
1356
1382
1397
1401
1397
1382
1358
1318
1264
1204
1148
1106
1071
1043
1028
1021
1023
1026
1029
1030
1025
1020
1014
1012
1010
1012
1012
1012
1010
1007
1005
1004
1008
1012
1016
1018
1014
1006
1003
1000
999
999
996
993
989
993
997
999
1002
1002
1001
1000
1001
1001
1001
1002
998
999
996
993
993
993
993
989
978
974
973
974
976
976
975
971
967
962
954
951
949
953
955
961
972
976
976
974
972
969
973
975
979
985
992
1000
1007
1013
1021
1026
1029
1033
1035
1037
1038
1039
1041
1042
1047
1049
1050
1046
1044
1041
1040
1042
1042
1040
1044
1048
1053
1058
1060
1056
1048
1043
1039
1038
1042
1044
1048
1052
1057
1061
1061
1056
1052
1046
1043
1039
1039
1044
1048
1059
1068
1073
1079
1079
1077
1077
1077
1081
1086
1092
1099
1107
1114
1117
1122
1121
1119
1116
1108
1100
1097
1097
1104
1106
1102
1098
1090
1086
1083
1079
1077
1070
1066
1055
1050
1046
1044
1046
1049
1053
1053
1052
1053
1052
1055
1055
1055
1053
1051
1052
1057
1060
1068
1083
1107
1139
1175
1213
1249
1286
1319
1351
1384
1409
1422
1429
1422
1404
1366
1309
1245
1177
1128
1090
1067
1060
1058
1059
1060
1059
1050
1041
1035
1031
1031
1029
1031
1033
1035
1037
1035
1036
1035
1034
1034
1032
1029
1028
1028
1033
1037
1039
1039
1037
1033
1032
1025
1023
1026
1025
1030
1032
1030
1028
1023
1022
1018
1016
1015
1014
1017
1016
1015
1017
1013
1011
1006
1001
999
993
989
987
986
986
990
991
990
991
993
994
994
991
990
991
992
999
1005
1011
1017
1022
1026
1029
1033
1037
1040
1043
1048
1050
1055
1059
1061
1064
1065
1068
1070
1070
1073
1074
1076
1074
1072
1069
1067
1068
1070
1071
1075
1078
1082
1085
1084
1082
1080
1076
1073
1072
1077
1082
1083
1081
1080
1076
1074
1075
1078
1084
1088
1090
1088
1086
1086
1089
1099
1108
1112
1118
1119
1128
1139
1148
1159
1165
1178
1190
1209
1233
1260
1285
1303
1321
1334
1348
1360
1371
1385
1397
1412
1426
1438
1444
1437
1413
1374
1315
1234
1144
1047
956
884
833
802
792
794
811
832
850
863
874
882
894
915
939
962
982
996
1012
1023
1036
1044
1051
1051
1040
1028
1018
1012
1014
1019
1024
1025
1026
1027
1029
1033
1034
1033
1031
1025
1020
1017
1016
1010
1009
1008
1014
1014
1016
1013
1009
1005
1003
1007
1013
1017
1018
1016
1013
1012
1010
1014
1017
1020
1027
1037
1040
1038
1034
1035
1031
1035
1038
1043
1050
1054
1060
1066
1072
1075
1079
1083
1083
1084
1083
1081
1082
1083
1087
1092
1097
1099
1098
1095
1090
1082
1073
1071
1068
1068
1071
1074
1075
1071
1068
1061
1055
1052
1052
1054
1055
1055
1058
1059
1056
1057
1054
1055
1052
1055
1058
1062
1059
1058
1055
1054
1053
1052
1052
1051
1053
1051
1050
1052
1053
1056
1060
1062
1064
1064
1064
1061
1058
1056
1051
1050
1055
1055
1060
1062
1063
1061
1063
1066
1067
1065
1057
1054
1050
1051
1058
1062
1064
1065
1063
1059
1057
1055
1059
1060
1061
1063
1069
1072
1073
1074
1075
1071
1076
1079
1081
1085
1087
1088
1094
1095
1101
1106
1112
1117
1124
1127
1131
1130
1126
1116
1108
1107
1109
1114
1116
1117
1115
1112
1102
1090
1080
1072
1070
1073
1078
1077
1074
1066
1058
1051
1046
1045
1047
1053
1056
1057
1063
1060
1060
1061
1058
1057
1057
1056
1059
1067
1082
1105
1137
1179
1220
1261
1297
1327
1358
1386
1410
1428
1437
1431
1418
1386
1336
1266
1194
1132
1088
1067
1061
1063
1067
1068
1066
1054
1044
1033
1023
1016
1015
1019
1023
1025
1024
1023
1022
1022
1019
1020
1011
1011
1012
1013
1015
1015
1017
1016
1015
1013
1012
1007
1007
1007
1004
1004
1005
1005
1005
1008
1010
1010
1007
1001
992
986
984
984
983
984
983
979
977
975
969
968
965
962
959
956
953
949
949
948
950
946
946
944
943
941
943
944
943
944
946
947
951
958
964
970
975
979
984
989
996
1005
1013
1021
1028
1036
1039
1041
1039
1040
1042
1045
1048
1046
1043
1039
1042
1042
1040
1041
1039
1038
1038
1035
1038
1041
1041
1043
1046
1045
1040
1039
1037
1037
1031
1034
1033
1036
1036
1037
1043
1042
1041
1039
1037
1038
1039
1040
1044
1055
1058
1061
1064
1069
1069
1075
1074
1078
1081
1087
1094
1099
1103
1105
1103
1099
1095
1094
1095
1094
1096
1097
1095
1090
1086
1081
1077
1072
1067
1063
1059
1056
1051
1050
1047
1047
1048
1046
1049
1049
1049
1047
1048
1046
1043
1046
1047
1048
1052
1060
1074
1096
1129
1169
1210
1250
1286
1318
1353
1384
1404
1412
1411
1392
1358
1307
1242
1175
1116
1076
1052
1043
1042
1046
1048
1046
1041
1032
1022
1017
1016
1014
1012
1017
1018
1017
1018
1016
1016
1014
1013
1010
1009
1011
1012
1011
1012
1011
1012
1011
1011
1011
1010
1007
1005
1007
1003
1003
1005
1007
1005
1005
1002
1001
998
994
990
988
986
984
980
979
980
979
976
971
966
966
962
961
959
959
959
960
959
956
954
953
950
951
950
954
957
960
964
969
975
979
985
988
992
992
993
995
1002
1007
1014
1016
1023
1025
1031
1030
1030
1031
1029
1025
1027
1029
1030
1031
1033
1032
1034
1034
1031
1032
1033
1037
1040
1041
1045
1051
1057
1065
1075
1086
1098
1108
1123
1137
1158
1183
1206
1226
1236
1221
1183
1115
1025
922
830
757
706
670
642
625
611
603
597
595
601
610
627
650
677
711
743
765
783
787
792
800
815
837
858
876
890
897
901
910
918
931
947
966
990
1017
1039
1055
1067
1072
1073
1073
1073
1075
1078
1082
1084
1088
1092
1095
1100
1101
1104
1106
1112
1113
1119
1122
1123
1126
1129
1131
1136
1141
1146
1152
1156
1161
1164
1167
1169
1172
1175
1179
1180
1187
1193
1196
1195
1197
1196
1195
1193
1191
1187
1185
1182
1180
1176
1171
1165
1162
1152
1142
1131
1124
1114
1105
1098
1093
1088
1084
1079
1073
1065
1059
1052
1046
1041
1033
1031
1026
1024
1022
1020
1019
1018
1012
1010
1008
1004
1003
1002
1002
999
1001
1002
1001
1004
1003
1001
1001
999
997
997
998
1000
1000
1002
1000
1004
1005
1002
1002
1002
997
995
994
992
995
997
996
996
993
991
991
990
989
987
988
987
986
987
987
988
988
984
986
986
984
984
984
983
981
983
984
983
983
984
982
980
979
977
979
981
983
982
983
981
980
980
981
978
981
981
981
983
983
985
986
988
993
994
999
999
1005
1006
1011
1014
1015
1018
1020
1022
1025
1028
1034
1039
1039
1040
1040
1036
1032
1031
1031
1032
1033
1031
1028
1020
1016
1009
1003
1001
995
995
989
985
979
975
971
971
967
966
967
969
970
972
972
971
973
970
967
968
972
976
992
1011
1044
1085
1126
1166
1203
1239
1270
1301
1322
1336
1339
1326
1302
1263
1203
1139
1075
1028
995
973
960
958
957
954
950
944
937
931
929
926
924
925
923
922
921
921
921
922
922
919
920
920
918
916
916
914
912
914
914
914
915
915
914
914
912
908
907
906
904
905
907
905
903
903
900
898
895
890
887
884
880
877
873
871
869
864
862
856
853
848
847
843
842
841
839
839
837
834
834
829
829
831
832
834
840
846
852
858
862
866
873
875
879
886
890
898
904
908
917
925
931
933
937
938
938
939
939
938
941
940
946
947
947
947
948
946
945
944
943
944
945
944
947
949
951
952
951
949
946
944
943
946
944
946
950
952
955
953
957
958
961
962
964
970
974
976
981
985
989
994
999
1005
1009
1012
1016
1014
1013
1011
1011
1013
1014
1016
1022
1021
1019
1019
1018
1018
1020
1030
1043
1058
1075
1089
1101
1113
1123
1135
1149
1165
1180
1201
1216
1228
1237
1238
1231
1210
1173
1116
1039
949
864
789
732
689
660
650
649
659
675
694
715
731
748
761
778
797
822
842
866
881
896
903
904
902
905
904
903
905
909
909
912
911
909
908
907
906
906
909
908
909
912
911
913
910
908
907
907
908
909
909
911
914
917
916
918
917
915
915
913
914
911
914
915
916
919
921
923
924
926
927
930
935
937
941
941
946
950
952
955
956
960
960
962
966
970
975
977
979
981
981
978
975
974
970
964
963
964
960
962
961
960
955
956
950
947
943
937
937
936
934
934
936
935
934
936
935
934
934
934
930
931
932
930
932
934
932
931
931
932
931
931
932
932
933
935
934
932
932
935
933
931
934
933
935
933
934
936
937
938
936
938
942
944
946
950
951
955
962
966
968
967
969
971
975
981
986
992
995
994
989
988
988
987
988
991
990
989
982
975
968
960
955
947
946
943
941
937
934
931
929
925
926
927
928
929
932
933
932
933
930
930
931
936
944
964
990
1027
1071
1117
1160
1198
1234
1267
1294
1314
1321
1319
1301
1269
1222
1156
1084
1023
977
954
942
936
935
935
930
926
916
908
904
899
900
898
898
898
898
899
898
898
898
897
896
895
893
891
891
891
889
890
891
891
891
893
887
889
887
886
884
885
882
882
881
879
880
879
877
874
870
865
863
861
860
860
856
856
854
849
847
843
840
839
833
831
832
831
831
832
832
834
833
835
837
838
842
847
853
860
866
872
878
883
886
892
894
899
902
907
912
916
921
924
927
926
929
932
929
929
930
930
931
931
932
936
939
938
938
938
937
936
936
937
938
937
939
939
938
939
939
938
939
941
941
940
940
941
942
943
943
945
945
948
952
951
951
954
955
960
963
965
970
970
973
973
978
980
985
990
994
1001
1004
1004
1004
998
994
995
995
998
997
991
989
983
977
970
965
959
954
951
950
946
945
940
938
940
937
936
940
941
943
945
945
945
943
942
943
946
955
971
999
1031
1068
1114
1157
1194
1227
1257
1287
1312
1327
1330
1326
1302
1265
1210
1142
1075
1016
977
958
950
947
951
950
947
941
934
924
917
917
916
916
919
918
918
917
919
914
915
909
909
909
909
910
912
914
914
913
917
915
914
914
911
906
909
907
906
911
910
912
913
911
907
906
902
900
899
897
897
896
893
894
889
885
882
880
875
873
870
869
869
869
871
871
873
871
872
871
870
875
877
883
886
893
899
906
910
913
916
918
923
927
932
938
942
945
950
952
952
956
956
956
957
958
955
955
958
958
957
959
959
959
958
960
956
957
956
958
956
957
958
961
963
963
962
962
960
957
957
957
957
960
963
962
967
966
966
966
968
970
973
976
980
985
988
992
994
996
996
1001
1003
1008
1013
1020
1025
1027
1023
1021
1017
1014
1015
1014
1016
1016
1014
1012
1006
1003
995
995
990
983
979
973
970
966
962
958
956
956
957
958
957
960
959
961
960
960
959
960
959
962
965
974
986
1004
1033
1071
1108
1146
1182
1214
1245
1278
1309
1332
1344
1341
1333
1307
1268
1218
1155
1093
1045
1008
988
979
969
968
967
963
957
947
937
931
931
929
931
933
934
934
932
928
931
928
920
922
921
922
927
926
928
925
924
922
916
915
916
917
918
920
922
923
923
921
920
918
917
916
913
912
911
912
910
909
906
902
900
898
895
891
887
886
885
882
882
883
880
879
877
875
874
870
871
873
876
877
880
882
884
889
894
898
902
905
909
915
919
925
929
936
939
946
948
949
950
952
953
955
957
960
960
963
963
963
963
962
966
964
962
963
960
963
964
967
967
966
967
965
963
963
962
962
962
965
967
970
972
969
972
970
968
968
966
972
975
981
987
996
1004
1009
1016
1019
1017
1019
1022
1027
1037
1050
1063
1075
1083
1090
1097
1109
1123
1141
1157
1177
1189
1206
1218
1233
1248
1260
1273
1283
1291
1292
1286
1269
1237
1188
1119
1036
946
859
784
730
692
675
677
692
713
740
760
775
787
801
819
837
855
875
896
911
921
924
924
925
925
926
927
925
928
929
930
930
927
930
930
930
929
931
929
933
930
930
931
933
932
929
930
931
930
931
931
929
927
928
929
927
931
933
934
937
939
942
943
946
945
945
949
952
955
958
965
971
975
977
982
981
985
985
987
990
993
997
998
1001
1001
998
997
998
997
993
991
989
988
992
993
996
997
1000
1003
1005
1011
1018
1027
1037
1049
1066
1080
1095
1107
1114
1117
1107
1084
1043
989
924
858
799
743
697
653
614
579
543
516
499
492
494
501
516
531
552
566
588
612
634
654
675
686
699
709
722
736
749
762
774
783
795
806
820
838
863
889
919
950
978
1000
1016
1028
1034
1039
1047
1051
1057
1062
1067
1076
1082
1085
1087
1090
1089
1092
1093
1096
1100
1107
1111
1116
1121
1126
1125
1128
1130
1133
1134
1138
1144
1148
1153
1159
1163
1170
1173
1177
1181
1185
1187
1190
1193
1196
1196
1197
1197
1197
1194
1192
1187
1185
1180
1175
1166
1161
1154
1148
1140
1135
1127
1122
1113
1109
1100
1089
1080
1070
1063
1059
1053
1047
1043
1033
1030
1025
1017
1011
1008
1006
1003
1003
1004
1001
1000
999
997
995
995
996
995
996
996
997
996
997
995
995
993
993
990
988
990
990
989
989
990
992
990
995
988
987
986
983
982
981
982
983
983
984
985
980
978
977
977
976
977
975
972
971
975
975
974
972
972
970
972
973
973
972
972
969
969
969
966
967
966
964
965
963
964
967
965
966
964
965
963
962
963
963
964
964
966
967
967
968
972
972
975
974
973
969
969
967
962
960
963
964
968
973
976
976
974
972
968
965
962
964
966
967
971
975
977
977
973
966
961
960
959
968
976
981
984
986
983
985
980
975
972
965
965
966
974
981
983
985
987
988
989
994
993
1001
1007
1016
1025
1036
1048
1054
1049
1041
1023
1005
996
994
1004
1018
1033
1039
1038
1029
1013
996
978
962
954
952
954
958
963
966
966
964
962
964
961
956
954
948
946
947
953
963
977
997
1016
1048
1081
1117
1156
1198
1245
1290
1331
1356
1363
1351
1320
1272
1204
1132
1059
1003
971
950
943
943
945
946
941
937
932
928
927
928
927
925
923
916
912
912
912
910
906
902
902
905
910
913
914
912
912
913
915
915
908
896
886
877
876
887
901
911
919
919
908
901
887
881
878
874
872
872
873
877
882
886
885
881
876
869
864
861
857
853
851
850
850
847
845
843
839
834
833
834
836
839
842
844
845
845
843
843
843
845
853
861
870
879
882
885
888
896
904
916
924
933
941
945
947
946
944
946
954
962
966
971
974
982
982
980
976
971
977
985
997
1002
1004
1009
1008
1008
1008
1011
1018
1033
1050
1066
1080
1098
1120
1146
1172
1196
1222
1251
1276
1303
1327
1343
1360
1375
1387
1394
1389
1370
1330
1263
1185
1098
1017
949
897
864
848
844
849
859
871
882
899
918
942
965
981
989
988
982
977
970
965
961
963
965
966
964
962
956
950
945
943
942
942
938
938
942
946
946
945
946
946
952
954
952
949
939
934
927
928
935
941
951
956
954
948
943
937
937
937
934
936
939
944
951
956
957
953
953
950
948
951
955
963
973
985
994
1001
999
996
994
996
1001
1005
1011
1016
1013
1011
1011
1005
1008
1010
1009
1013
1013
1013
1009
1005
1005
1008
1010
1011
1012
1008
1009
1013
1017
1018
1009
999
987
985
990
998
1005
1004
1003
1000
998
1000
1000
1005
1005
1006
1007
1006
1008
1007
1004
1004
1001
1002
1006
1010
1014
1010
1007
1005
1005
1010
1011
1014
1015
1016
1014
1012
1006
1004
1002
1002
1004
1007
1006
1006
1007
1011
1014
1018
1020
1021
1019
1017
1016
1006
1003
1000
1001
1005
1014
1020
1024
1022
1014
1009
1009
1009
1011
1011
1012
1010
1011
1012
1017
1021
1023
1023
1023
1022
1016
1010
1009
1008
1014
1021
1022
1024
1025
1027
1028
1030
1033
1035
1040
1045
1047
1056
1063
1067
1068
1057
1053
1055
1063
1072
1081
1086
1087
1086
1081
1076
1075
1072
1072
1075
1075
1076
1077
1074
1064
1059
1055
1053
1051
1047
1043
1041
1039
1039
1039
1040
1037
1030
1023
1018
1018
1023
1027
1032
1031
1029
1030
1031
1033
1039
1054
1074
1101
1132
1167
1204
1241
1281
1319
1357
1393
1418
1430
1431
1420
1389
1338
1269
1196
1133
1083
1057
1049
1044
1042
1035
1024
1014
1007
1007
1007
1008
1001
999
995
995
994
993
1000
1005
1008
1005
998
992
986
988
993
996
991
985
980
979
984
990
996
998
996
992
987
984
979
976
977
981
986
984
984
979
976
973
968
963
957
955
958
959
959
952
944
933
924
923
927
929
930
928
921
916
912
910
913
917
917
922
925
928
933
936
937
936
938
946
953
957
961
964
970
979
988
996
1000
1004
1010
1014
1017
1019
1023
1025
1025
1027
1032
1036
1038
1040
1041
1039
1039
1043
1045
1045
1046
1044
1044
1049
1050
1048
1046
1045
1045
1042
1044
1045
1049
1048
1048
1047
1045
1044
1045
1046
1049
1051
1049
1049
1051
1055
1060
1068
1074
1081
1088
1085
1077
1067
1066
1074
1086
1098
1104
1108
1106
1101
1090
1084
1084
1085
1089
1089
1085
1083
1079
1076
1075
1069
1061
1050
1045
1042
1043
1045
1043
1040
1032
1031
1031
1036
1038
1041
1042
1041
1038
1037
1036
1037
1042
1054
1074
1102
1141
1182
1221
1254
1291
1324
1357
1386
1409
1420
1423
1413
1389
1349
1288
1219
1152
1098
1064
1049
1046
1046
1040
1030
1020
1016
1016
1020
1022
1019
1016
1016
1016
1018
1016
1011
1005
1004
1006
1014
1017
1018
1014
1007
1001
996
993
994
999
1004
1008
1010
1004
1001
997
996
995
998
1000
1001
1003
1000
998
997
998
997
995
990
984
983
982
981
979
976
973
972
971
966
962
956
955
956
954
951
949
946
942
942
942
947
951
959
964
970
975
983
986
989
990
991
992
993
998
1007
1016
1027
1030
1030
1028
1031
1031
1036
1033
1031
1035
1038
1043
1044
1048
1047
1046
1043
1039
1038
1036
1042
1043
1042
1038
1036
1036
1037
1039
1041
1043
1043
1040
1038
1035
1035
1037
1036
1039
1040
1041
1040
1041
1043
1044
1050
1055
1057
1060
1065
1069
1071
1075
1076
1077
1077
1077
1083
1089
1095
1101
1101
1100
1093
1088
1087
1085
1086
1093
1096
1092
1083
1074
1066
1066
1068
1069
1064
1052
1042
1037
1039
1043
1047
1044
1042
1037
1035
1035
1037
1040
1042
1039
1035
1033
1032
1034
1040
1052
1067
1090
1123
1163
1205
1245
1281
1319
1353
1383
1405
1415
1414
1397
1356
1298
1224
1153
1097
1060
1037
1032
1030
1030
1028
1020
1012
1003
996
991
993
997
998
1000
1004
1004
1000
996
994
993
995
998
1001
1000
1005
1002
999
992
989
987
987
990
988
987
987
987
989
991
993
990
984
978
977
979
982
982
980
972
969
963
960
957
953
956
953
954
952
952
945
941
938
935
937
938
942
946
945
945
947
952
957
961
964
968
973
976
979
988
995
1001
1007
1012
1014
1016
1017
1020
1020
1025
1028
1031
1033
1035
1031
1024
1021
1023
1030
1036
1039
1039
1038
1035
1031
1030
1027
1027
1027
1027
1034
1033
1032
1032
1030
1030
1032
1035
1034
1035
1037
1037
1040
1039
1036
1033
1029
1029
1034
1041
1042
1045
1047
1050
1051
1054
1059
1067
1072
1077
1080
1084
1086
1087
1090
1087
1084
1078
1080
1078
1083
1086
1088
1083
1075
1068
1065
1060
1058
1053
1045
1037
1032
1029
1027
1025
1023
1021
1022
1022
1021
1023
1022
1023
1024
1028
1028
1029
1027
1025
1025
1031
1044
1071
1103
1140
1179
1219
1254
1289
1325
1354
1381
1398
1408
1400
1381
1347
1289
1217
1150
1089
1053
1034
1026
1024
1027
1028
1028
1021
1009
996
993
988
988
986
985
986
987
988
990
991
991
991
989
988
987
988
992
991
989
981
980
980
980
983
984
985
985
986
983
982
979
977
973
970
966
966
966
966
965
960
953
946
945
943
948
950
950
948
940
935
931
929
933
930
932
931
934
935
934
932
932
932
936
941
946
955
964
966
975
983
989
995
994
992
995
995
1002
1006
1012
1016
1020
1022
1021
1020
1017
1017
1018
1020
1023
1026
1026
1023
1020
1017
1018
1022
1026
1027
1025
1022
1018
1016
1016
1016
1017
1021
1019
1026
1028
1026
1024
1022
1020
1020
1021
1026
1036
1042
1045
1043
1040
1041
1040
1041
1043
1049
1051
1055
1062
1067
1071
1079
1082
1084
1082
1079
1076
1075
1076
1083
1084
1087
1083
1077
1069
1065
1061
1056
1048
1044
1039
1037
1039
1037
1037
1034
1032
1029
1025
1023
1018
1017
1018
1021
1027
1033
1036
1038
1035
1031
1026
1032
1043
1064
1095
1134
1170
1210
1243
1273
1302
1330
1354
1374
1384
1384
1377
1363
1337
1295
1240
1180
1122
1081
1056
1044
1041
1041
1038
1038
1032
1028
1017
1009
1004
998
996
999
1002
1006
1008
1008
1006
1004
1002
1000
1000
997
998
997
997
998
999
1001
1001
1003
999
997
992
987
983
983
986
991
994
993
993
991
988
986
981
975
971
969
969
970
969
970
967
965
960
960
954
952
946
941
939
940
941
942
940
940
934
935
935
937
937
940
944
945
947
949
956
963
972
979
987
992
997
999
1001
1002
1005
1004
1008
1011
1013
1018
1018
1017
1016
1016
1018
1019
1022
1026
1030
1032
1034
1040
1045
1050
1056
1066
1075
1087
1097
1111
1127
1149
1174
1192
1200
1190
1156
1105
1032
954
875
804
749
699
661
631
610
593
578
572
570
573
584
596
612
632
650
677
703
728
749
768
786
803
818
837
854
880
903
924
943
955
969
986
1003
1028
1054
1074
1092
1101
1103
1103
1097
1094
1089
1089
1095
1097
1105
1109
1112
1116
1117
1120
1119
1121
1127
1130
1136
1141
1143
1147
1150
1152
1155
1158
1160
1164
1165
1167
1175
1177
1183
1191
1194
1199
1200
1200
1203
1200
1199
1201
1203
1208
1208
1209
1209
1205
1199
1194
1186
1181
1175
1169
1162
1159
1152
1144
1140
1135
1128
1122
1117
1112
1103
1098
1086
1079
1075
1074
1072
1068
1060
1055
1054
1048
1044
1039
1037
1035
1034
1033
1030
1028
1026
1027
1025
1025
1023
1021
1020
1021
1019
1021
1021
1021
1021
1020
1018
1019
1018
1017
1015
1017
1017
1015
1018
1017
1015
1012
1009
1009
1007
1006
1007
1007
1008
1009
1008
1011
1009
1008
1004
1001
1000
998
997
997
998
997
1001
1000
1002
1001
1001
1000
999
998
998
995
993
993
994
995
997
995
995
994
992
989
988
987
984
982
984
989
990
990
992
990
990
987
989
987
986
991
993
992
990
992
990
991
993
995
1001
1006
1010
1015
1017
1020
1019
1021
1023
1025
1028
1033
1038
1043
1046
1043
1040
1035
1030
1026
1028
1030
1029
1023
1019
1011
1010
1005
1002
998
994
988
983
979
972
970
969
970
968
969
969
969
970
970
971
973
975
974
973
971
974
987
1010
1041
1078
1119
1158
1195
1227
1258
1287
1307
1316
1316
1300
1274
1232
1176
1114
1059
1017
988
971
963
963
963
958
955
945
936
928
924
925
921
925
924
926
928
927
931
931
929
926
924
919
914
912
912
913
915
919
920
919
919
916
916
915
911
911
911
913
911
911
910
910
908
907
903
900
896
896
891
887
882
881
882
876
875
870
865
861
857
854
851
849
845
844
843
842
840
838
837
835
835
835
837
836
838
840
850
850
856
860
865
869
875
881
884
891
897
903
910
915
923
925
926
929
932
933
931
935
936
940
941
944
944
944
943
942
940
939
940
943
944
946
946
947
948
944
942
939
938
937
937
939
941
942
946
946
948
949
948
951
950
951
951
952
956
960
962
965
967
969
968
970
969
975
981
991
1000
1004
1006
1002
997
988
986
984
985
988
992
992
990
986
977
967
958
954
949
947
946
943
941
936
934
933
932
933
933
932
929
926
923
924
926
929
932
934
936
936
942
955
973
999
1035
1078
1118
1154
1186
1218
1248
1270
1287
1294
1288
1269
1239
1194
1133
1068
1009
968
944
935
934
937
935
930
922
912
904
899
898
898
898
897
897
896
894
895
893
891
891
889
886
886
888
890
891
888
880
873
868
866
868
874
880
880
880
875
873
868
869
873
877
878
879
871
863
856
852
850
849
847
846
840
837
836
833
836
842
842
843
837
836
829
830
824
823
820
821
819
819
825
831
839
846
852
855
859
859
863
864
870
876
884
892
898
898
897
894
892
894
898
902
905
903
901
903
906
913
916
915
911
906
898
892
889
889
896
903
909
918
919
919
915
905
899
892
890
891
897
903
904
908
905
902
901
903
908
913
916
915
920
917
914
917
919
925
929
936
944
952
959
966
968
969
966
962
957
957
955
960
963
962
958
953
950
944
936
929
921
915
914
915
916
912
909
906
902
900
900
899
899
901
905
905
908
906
907
908
915
926
948
978
1011
1047
1083
1118
1152
1185
1220
1253
1274
1278
1275
1256
1223
1179
1120
1064
1010
966
935
918
911
908
907
903
894
884
876
871
872
874
877
878
878
880
879
876
878
875
873
870
868
867
867
871
880
883
889
889
884
876
869
864
866
872
874
876
879
876
872
866
868
868
867
865
862
858
856
852
851
852
851
851
848
841
838
837
834
831
831
833
835
838
841
843
838
827
817
812
812
817
826
834
843
848
849
850
849
851
853
859
868
877
885
890
894
902
907
909
912
911
912
907
905
907
911
917
918
917
913
910
907
911
913
919
927
936
948
958
964
972
975
979
990
1008
1028
1050
1070
1079
1080
1069
1048
1018
973
919
859
808
761
720
691
662
637
612
584
559
544
533
530
533
539
553
570
597
622
653
675
692
699
702
706
717
734
757
789
810
826
838
845
852
857
868
887
910
933
953
967
975
977
976
973
972
970
972
971
970
973
969
970
971
973
983
991
1002
1007
1008
1005
999
997
998
1002
1010
1018
1022
1026
1034
1039
1045
1044
1043
1044
1042
1045
1049
1052
1059
1064
1074
1079
1084
1080
1079
1077
1071
1065
1062
1065
1062
1067
1067
1065
1059
1051
1039
1028
1022
1016
1012
1009
1001
991
981
975
970
965
961
955
947
938
931
926
922
918
919
919
915
911
913
908
903
902
901
900
901
905
908
910
911
909
907
902
900
900
897
898
900
902
905
911
916
914
911
904
899
895
897
902
908
912
914
910
906
898
888
883
884
894
901
907
913
911
909
906
903
901
900
898
893
896
897
899
901
901
902
903
907
903
894
889
886
890
896
903
905
908
908
904
900
895
890
892
891
893
898
901
902
901
901
903
905
909
911
914
916
923
928
934
934
932
930
927
931
939
951
962
967
973
970
961
948
947
946
951
957
959
957
951
944
941
935
934
932
928
920
910
907
908
914
918
913
905
897
896
895
896
898
897
898
905
909
910
910
913
918
933
962
1000
1045
1089
1133
1174
1212
1248
1272
1290
1296
1288
1268
1231
1180
1118
1052
998
957
930
916
913
910
909
908
905
901
888
872
862
858
862
868
874
877
873
868
863
858
861
863
869
872
871
869
866
867
865
864
865
866
866
868
870
868
867
866
870
871
866
859
852
851
849
853
856
858
855
848
842
840
839
838
838
838
838
829
826
819
810
803
800
798
805
808
815
818
814
806
797
793
797
804
811
817
820
822
826
830
832
830
829
836
844
855
864
870
874
878
883
889
893
899
904
908
913
919
924
933
936
931
918
910
911
919
929
940
946
946
939
926
918
918
925
933
941
943
943
941
939
936
935
932
928
926
929
936
941
946
947
947
948
947
950
955
958
962
968
973
976
978
982
984
987
987
990
995
996
993
993
993
994
994
992
988
982
982
979
973
963
958
953
956
957
958
953
949
938
939
934
935
935
934
935
939
940
939
942
943
943
942
941
941
950
969
997
1032
1070
1112
1147
1179
1210
1246
1286
1321
1349
1362
1361
1345
1313
1263
1200
1134
1079
1034
1004
987
978
975
971
967
958
948
939
932
930
931
929
931
930
926
924
924
922
921
921
921
920
920
920
920
921
922
924
924
926
929
925
922
919
916
914
913
920
924
926
927
925
920
912
909
906
904
904
905
905
905
902
904
901
900
901
902
901
897
892
885
880
878
877
880
882
883
884
882
877
876
877
886
894
903
911
916
917
922
925
929
934
939
941
945
953
956
962
965
967
966
967
967
967
967
967
967
966
969
967
968
968
972
977
977
979
979
975
974
972
975
977
977
977
974
973
971
971
972
972
970
968
964
966
969
976
978
980
981
977
976
972
976
979
983
987
992
996
999
1004
1002
1000
995
997
998
1009
1021
1032
1040
1042
1037
1028
1020
1015
1015
1016
1020
1022
1023
1018
1015
1010
1004
996
989
983
978
976
974
974
973
971
969
963
961
963
964
965
965
966
966
964
964
961
962
964
968
978
988
1006
1029
1059
1090
1127
1164
1201
1241
1283
1325
1354
1373
1373
1362
1336
1292
1234
1172
1116
1069
1029
1004
983
977
972
972
968
962
953
943
935
933
933
934
933
932
931
932
931
933
935
934
931
931
931
933
934
932
927
922
922
923
925
926
926
925
920
920
920
919
918
916
913
915
915
915
916
918
916
911
907
901
902
898
896
893
889
883
880
886
885
886
886
884
881
876
874
873
875
879
888
891
893
895
894
892
894
899
904
914
918
925
930
936
941
942
943
946
949
952
959
963
967
972
973
971
968
966
965
965
967
969
967
967
965
967
972
972
969
967
967
967
969
968
967
968
967
966
967
969
967
967
967
964
966
967
969
970
972
975
977
981
986
987
991
990
988
990
992
994
999
1005
1009
1018
1022
1026
1022
1018
1012
1010
1010
1010
1012
1013
1012
1007
1003
998
988
979
978
977
975
976
974
968
964
961
961
961
962
963
965
967
968
968
966
962
963
965
964
968
976
999
1029
1067
1111
1151
1187
1224
1264
1302
1334
1356
1363
1355
1339
1308
1265
1211
1146
1088
1037
1010
990
985
980
975
975
965
955
947
942
935
935
938
942
946
945
941
931
927
921
925
927
927
925
924
923
921
928
934
936
933
925
924
925
929
931
932
931
926
923
923
922
923
924
923
922
916
909
898
896
898
907
913
916
912
909
906
903
898
892
888
883
881
878
877
881
881
879
877
878
878
879
879
880
880
878
879
885
890
898
904
906
912
918
923
927
934
939
944
946
949
954
955
957
959
964
969
970
976
974
972
969
969
966
965
966
966
967
967
971
972
977
979
977
976
970
968
970
974
977
979
976
970
966
965
965
970
973
973
977
980
977
980
980
984
990
992
995
1000
999
999
1001
1005
1012
1018
1024
1030
1030
1024
1018
1013
1011
1013
1015
1014
1014
1014
1008
1003
996
993
987
981
976
974
970
969
968
969
969
966
962
958
954
952
953
956
960
963
968
973
970
973
975
990
1012
1047
1092
1140
1188
1229
1267
1303
1333
1355
1362
1360
1344
1312
1265
1199
1131
1072
1028
1000
986
979
981
982
975
958
944
931
932
936
942
947
949
950
949
948
945
942
932
927
926
937
943
947
943
940
932
931
930
931
934
933
938
934
929
925
922
920
921
920
920
921
921
918
916
910
906
905
902
900
897
890
887
881
881
881
886
888
887
887
887
883
882
881
884
888
894
902
908
912
913
917
919
929
939
950
954
956
954
955
958
965
970
977
980
981
977
976
974
974
974
975
977
978
980
980
981
980
980
983
984
984
981
980
980
979
979
984
986
984
984
982
987
992
997
1003
1008
1013
1021
1027
1030
1038
1049
1063
1078
1102
1123
1154
1183
1212
1232
1236
1219
1173
1098
1002
904
818
751
699
658
624
598
574
559
552
551
555
566
580
599
626
655
682
703
713
710
708
713
726
751
779
807
833
846
852
857
864
878
898
926
957
988
1016
1038
1051
1060
1064
1068
1075
1079
1084
1088
1088
1086
1087
1088
1093
1100
1105
1111
1118
1119
1120
1123
1126
1131
1137
1140
1146
1149
1154
1160
1167
1176
1181
1183
1188
1189
1194
1198
1204
1212
1215
1216
1218
1218
1216
1215
1212
1210
1208
1203
1201
1195
1187
1175
1165
1158
1150
1149
1143
1137
1130
1117
1105
1093
1090
1083
1080
1078
1073
1069
1063
1054
1044
1038
1034
1030
1020
1020
1019
1020
1015
1011
1008
1004
999
996
997
999
1001
1003
1004
1000
996
991
987
988
992
997
999
998
1002
1004
1006
1006
1002
996
988
986
986
991
997
1002
1002
999
996
989
984
983
980
981
983
985
986
985
984
984
984
985
985
985
984
982
980
983
983
987
990
987
990
989
990
993
991
987
985
982
977
979
980
978
980
984
988
991
992
995
998
1000
1006
1013
1018
1026
1028
1029
1028
1029
1032
1035
1039
1038
1039
1036
1037
1036
1035
1030
1031
1030
1034
1036
1033
1023
1016
1008
1003
998
998
993
990
984
978
974
973
971
972
969
968
969
971
975
980
981
982
977
968
966
967
975
985
1005
1027
1062
1103
1145
1187
1229
1265
1300
1331
1354
1367
1369
1357
1324
1275
1211
1142
1075
1028
999
982
976
975
971
967
959
951
943
933
926
923
923
923
925
929
931
933
929
925
921
914
910
913
913
917
921
923
920
917
918
919
924
926
920
914
910
909
912
915
917
916
912
908
904
900
896
897
897
897
897
893
889
886
878
873
868
864
861
861
857
857
854
852
846
843
839
838
837
835
837
834
833
833
839
846
850
851
844
842
845
854
865
878
886
889
894
896
901
906
912
921
928
931
933
931
933
936
943
951
957
960
957
950
942
943
945
947
954
956
955
952
949
949
949
949
950
950
949
948
947
953
955
953
953
952
950
949
947
946
948
946
949
961
968
974
975
978
978
979
981
982
987
992
995
998
1001
1007
1017
1016
1010
1005
999
995
998
1002
1005
1002
994
988
979
970
965
961
959
958
955
950
944
940
937
938
942
947
951
947
947
946
947
950
951
948
950
951
961
979
1008
1046
1091
1136
1181
1222
1259
1296
1325
1341
1346
1342
1315
1275
1212
1139
1069
1015
975
953
944
944
943
944
941
932
924
917
913
910
908
908
908
913
917
922
925
923
920
913
909
906
907
909
910
912
915
915
912
906
904
905
903
902
902
899
899
904
907
905
902
896
897
895
896
895
892
891
889
889
887
884
879
878
876
878
877
875
874
868
864
863
862
863
861
861
866
868
870
868
866
866
870
878
889
899
903
907
910
910
910
912
914
918
926
934
942
946
948
946
948
948
951
951
953
950
948
947
949
950
950
951
958
960
960
955
950
948
950
950
955
956
954
951
951
952
956
958
956
955
955
950
948
945
946
949
955
952
951
948
949
952
956
960
963
969
973
976
980
981
982
981
985
988
993
1003
1016
1024
1029
1027
1022
1013
1007
1003
1001
1001
999
999
1002
1004
1007
1002
993
979
968
960
960
961
961
961
956
952
950
951
956
955
957
954
953
954
954
956
953
950
952
959
974
996
1030
1072
1114
1156
1194
1230
1266
1306
1335
1357
1362
1355
1334
1297
1248
1184
1116
1062
1020
995
977
970
968
968
960
951
932
924
917
918
925
930
932
931
931
928
924
921
921
920
923
925
927
927
922
920
919
920
922
925
925
924
920
918
918
915
914
914
912
915
913
909
908
905
908
910
910
913
914
908
905
899
894
889
885
882
878
877
879
881
882
881
882
876
872
868
868
868
873
878
885
889
891
889
887
889
893
898
912
918
927
936
939
942
943
947
950
952
959
959
961
962
963
962
960
960
959
963
968
971
973
971
970
971
971
976
972
971
968
970
974
975
976
975
974
975
971
971
969
970
971
977
979
980
979
979
980
980
976
976
980
989
997
1005
1014
1020
1025
1026
1031
1040
1054
1067
1074
1077
1082
1089
1101
1117
1139
1161
1180
1195
1213
1228
1244
1262
1281
1298
1315
1328
1338
1338
1336
1324
1294
1246
1178
1093
994
899
815
755
718
696
696
710
731
753
774
787
797
808
823
843
864
886
902
914
923
928
925
919
916
919
923
934
945
945
944
940
936
940
943
940
938
932
929
930
933
936
940
939
935
933
931
933
938
944
948
947
944
936
932
930
928
932
937
940
945
950
957
954
947
939
943
953
967
981
981
972
960
953
954
961
973
987
994
994
987
987
989
998
1008
1016
1026
1027
1013
997
993
990
988
980
975
973
975
978
982
982
976
969
966
962
963
964
966
974
979
976
968
961
962
962
960
955
954
956
963
971
979
980
973
958
950
947
947
951
958
962
966
970
977
987
995
994
991
978
963
950
944
941
949
962
973
978
979
976
969
960
955
954
959
965
970
973
972
972
974
975
979
981
979
973
964
962
967
979
985
987
991
989
994
1001
1007
1014
1018
1024
1032
1043
1046
1040
1034
1027
1015
1002
997
1001
1009
1011
1008
1006
1003
999
992
982
976
969
965
966
967
973
984
995
1001
993
984
977
972
963
954
952
962
975
984
984
977
973
979
999
1037
1092
1150
1205
1252
1292
1327
1357
1376
1380
1369
1344
1302
1245
1180
1116
1059
1014
983
974
972
974
972
964
954
944
939
945
957
965
957
939
921
911
912
922
931
933
928
915
903
900
904
912
925
932
936
937
929
922
913
912
916
920
926
937
942
942
935
925
919
918
919
918
914
913
911
911
904
899
895
892
894
901
904
903
897
888
881
880
877
871
871
866
865
861
861
865
864
866
870
874
881
886
891
893
892
891
893
899
908
919
934
938
938
934
930
932
940
957
972
978
968
956
950
947
949
952
956
961
966
967
969
967
970
973
984
991
1001
999
978
953
931
926
939
960
984
1000
1005
1010
1006
992
972
954
942
939
944
956
969
983
1001
1012
1019
1021
1016
999
979
963
956
958
968
990
1013
1031
1043
1051
1057
1058
1058
1047
1032
1015
1003
998
1000
1011
1027
1039
1050
1048
1029
998
960
933
923
929
947
967
979
986
984
977
975
971
968
966
965
970
973
977
979
979
978
977
984
1005
1039
1085
1138
1186
1222
1257
1294
1334
1372
1397
1408
1389
1348
1293
1231
1166
1104
1053
1014
986
975
973
976
979
977
969
960
952
950
951
956
954
956
952
951
948
946
945
947
946
945
946
947
945
947
947
949
949
951
954
955
956
956
954
954
952
955
955
950
954
950
939
922
909
904
905
910
918
928
934
936
931
926
917
910
911
911
909
905
899
897
896
898
897
899
904
908
914
919
927
938
945
946
942
940
940
945
952
954
956
960
962
966
970
978
981
983
981
983
982
986
989
990
993
997
998
999
1002
1004
1006
1006
1005
1006
1012
1023
1037
1057
1075
1088
1094
1096
1109
1126
1150
1177
1195
1202
1196
1174
1127
1056
967
874
794
732
687
655
629
608
590
584
583
592
602
614
629
645
664
694
724
751
771
778
784
789
797
810
826
846
868
886
902
914
925
934
940
943
956
977
1006
1036
1065
1083
1093
1096
1094
1084
1076
1077
1085
1099
1109
1117
1123
1131
1132
1119
1106
1096
1098
1112
1126
1141
1153
1160
1164
1159
1157
1158
1163
1172
1179
1183
1184
1185
1189
1200
1211
1222
1226
1230
1230
1229
1229
1232
1222
1215
1204
1197
1197
1201
1205
1207
1207
1201
1186
1168
1148
1129
1118
1115
1114
1116
1115
1115
1114
1115
1112
1104
1089
1068
1051
1044
1042
1043
1046
1041
1033
1028
1020
1017
1017
1023
1035
1044
1043
1035
1026
1021
1026
1032
1024
1013
1003
1003
1004
1015
1018
1021
1023
1032
1043
1054
1053
1045
1029
1011
1000
1002
1010
1010
1010
1011
1016
1022
1031
1037
1040
1043
1043
1036
1023
1007
993
985
988
998
1011
1022
1024
1021
1014
1010
1011
1014
1019
1025
1023
1020
1015
1011
1005
1003
1008
1018
1026
1032
1025
1010
999
998
1002
1016
1020
1016
1013
1018
1034
1051
1059
1047
1020
989
970
965
974
994
1016
1040
1063
1076
1072
1064
1057
1043
1032
1025
1026
1032
1042
1059
1086
1111
1126
1131
1128
1114
1091
1068
1048
1041
1048
1072
1093
1093
1075
1049
1032
1029
1036
1055
1076
1089
1085
1063
1035
1007
994
999
1007
1015
1023
1034
1050
1059
1049
1029
1008
992
986
989
1002
1021
1047
1069
1080
1086
1093
1112
1147
1190
1241
1288
1337
1384
1424
1449
1458
1450
1427
1392
1342
1278
1217
1164
1127
1102
1090
1079
1065
1052
1042
1036
1031
1024
1016
1001
979
961
957
966
983
997
999
1003
1008
1016
1025
1026
1023
1016
1003
985
961
945
941
946
964
986
1009
1027
1031
1024
1000
980
967
959
954
953
954
955
962
976
992
997
981
952
925
908
910
919
932
937
946
952
946
933
914
903
893
892
897
908
921
920
911
902
900
912
926
938
935
925
911
905
912
933
959
977
978
973
965
948
934
924
934
959
987
997
991
980
979
987
997
1007
1007
1010
1015
1017
1015
1008
1004
1004
1010
1023
1042
1053
1045
1033
1025
1029
1028
1018
1011
1002
1003
999
999
999
1002
1006
1014
1019
1037
1055
1055
1042
1016
994
983
992
1007
1020
1036
1047
1045
1029
1015
1015
1028
1047
1068
1075
1070
1062
1057
1060
1063
1061
1064
1066
1064
1057
1046
1043
1049
1063
1074
1072
1061
1046
1035
1022
1017
1021
1032
1046
1054
1042
1019
994
978
972
985
1006
1021
1029
1027
1020
1014
1012
1005
999
996
999
1016
1036
1051
1065
1077
1104
1144
1193
1239
1280
1317
1351
1388
1410
1423
1416
1382
1326
1257
1189
1134
1086
1049
1020
1005
1001
1009
1013
1014
1011
1001
986
977
971
977
993
998
993
987
980
975
968
963
959
952
950
957
963
970
971
973
973
976
979
975
972
965
961
968
980
983
972
957
949
943
942
940
942
949
961
975
977
965
947
933
924
925
938
952
955
945
926
914
909
909
920
928
931
933
931
919
914
917
924
938
957
973
979
976
968
964
967
972
980
986
988
991
996
1000
1001
1003
1007
1011
1020
1025
1017
1008
1001
995
992
991
992
995
1001
1006
1012
1019
1016
1012
1003
995
995
1003
1011
1018
1024
1029
1034
1032
1019
1006
1002
1006
1012
1012
1007
999
990
992
1003
1015
1029
1037
1039
1030
1016
1004
1003
1015
1039
1063
1078
1076
1073
1066
1061
1062
1061
1062
1065
1066
1064
1058
1058
1061
1069
1077
1077
1064
1042
1026
1016
1012
1021
1022
1019
1011
1002
993
990
992
997
1002
1008
1017
1016
1010
1006
1001
995
993
998
1001
1006
1018
1031
1047
1067
1091
1123
1160
1203
1250
1299
1342
1382
1409
1420
1411
1396
1368
1341
1294
1238
1173
1110
1058
1026
1013
1013
1016
1016
1008
999
993
993
992
986
970
956
950
954
964
972
972
976
971
964
960
962
967
964
964
960
953
945
939
936
942
956
968
974
976
972
965
957
947
938
935
936
943
950
958
956
943
928
921
921
928
933
929
929
931
927
925
924
929
933
931
924
910
896
881
880
883
891
896
903
905
906
912
913
919
929
944
958
963
947
929
914
914
921
935
953
971
988
992
984
975
971
974
987
1006
1022
1015
996
977
964
961
966
979
989
994
998
1001
1001
1001
997
992
992
986
980
979
984
987
988
989
992
993
986
972
968
972
989
999
1000
991
984
989
998
1005
1006
998
995
996
1002
1002
1002
1002
1003
1010
1020
1023
1026
1029
1038
1045
1051
1053
1055
1051
1042
1032
1023
1022
1024
1025
1030
1030
1025
1015
1005
993
987
981
979
977
976
982
993
998
999
993
988
988
987
978
970
962
962
971
980
994
1005
1028
1066
1111
1154
1192
1230
1274
1318
1360
1390
1406
1405
1380
1330
1261
1185
1112
1057
1021
1005
998
992
978
967
955
946
947
958
966
967
960
945
930
925
932
943
950
952
945
937
928
928
935
946
954
955
948
943
935
930
927
926
931
939
948
956
959
947
925
908
904
904
912
919
923
921
912
905
903
909
913
913
911
909
900
890
880
874
872
877
882
888
895
903
906
901
888
879
876
881
890
900
911
921
931
935
938
936
936
940
947
958
965
965
958
950
947
954
969
979
981
978
975
971
971
978
987
995
996
989
979
972
972
980
987
990
989
984
983
980
976
977
980
984
987
989
988
985
977
975
978
984
989
989
985
983
980
979
985
994
1000
998
999
1003
1012
1018
1020
1019
1024
1030
1032
1037
1040
1040
1041
1039
1037
1034
1030
1025
1023
1023
1026
1032
1040
1043
1045
1038
1027
1016
1005
998
987
980
978
975
975
972
972
979
984
991
992
991
987
985
984
985
983
979
978
985
1006
1046
1084
1118
1153
1192
1238
1287
1335
1375
1402
1411
1408
1388
1346
1280
1197
1115
1057
1013
990
986
992
1008
1010
1000
975
952
937
940
952
963
968
968
963
960
951
951
948
942
934
930
934
945
958
963
963
962
960
961
954
950
946
941
940
944
950
950
942
933
929
933
943
950
947
934
923
920
923
927
927
924
921
920
914
909
904
894
895
903
913
925
930
927
909
894
881
878
885
896
908
918
918
918
914
917
917
925
933
937
942
953
965
975
978
973
975
983
993
997
991
985
982
981
985
980
977
976
979
994
1003
1010
1008
1009
1002
987
979
975
978
983
998
1008
1016
1012
998
984
971
972
985
998
1014
1025
1027
1018
1001
983
976
980
991
996
1007
1014
1020
1015
1018
1016
1020
1031
1038
1048
1053
1050
1044
1038
1037
1045
1055
1055
1048
1047
1051
1058
1062
1062
1063
1059
1048
1034
1025
1029
1033
1033
1027
1018
1007
999
996
995
994
998
1007
1011
1010
1008
1004
1002
1001
1002
1002
998
997
1001
1006
1014
1029
1047
1074
1106
1141
1179
1221
1268
1322
1369
1406
1426
1427
1411
1383
1349
1304
1253
1198
1145
1097
1056
1027
1010
1003
999
994
987
983
977
975
978
982
981
980
977
975
975
974
972
969
968
970
972
971
972
974
972
967
962
960
959
958
962
970
971
977
975
978
979
975
964
949
940
941
949
961
963
961
959
955
949
944
942
946
951
947
939
928
916
912
914
919
925
928
928
930
930
927
923
924
930
940
944
945
942
939
940
946
958
967
970
973
978
986
992
998
1003
1005
1013
1021
1023
1014
1004
998
1000
1004
1015
1023
1031
1033
1029
1020
1009
1006
1010
1018
1026
1036
1039
1032
1015
1005
1004
1008
1023
1040
1063
1083
1108
1127
1138
1149
1173
1199
1226
1249
1258
1245
1198
1116
1013
911
828
768
724
680
638
610
589
584
592
610
627
644
656
674
700
719
733
741
747
758
770
785
801
815
835
860
880
892
896
901
912
921
936
958
990
1025
1060
1090
1100
1104
1104
1107
1112
1121
1123
1121
1126
1135
1137
1136
1129
1126
1133
1144
1152
1163
1166
1167
1169
1175
1182
1196
1202
1206
1208
1207
1207
1209
1210
1213
1217
1226
1236
1242
1239
1239
1241
1250
1258
1267
1272
1270
1265
1262
1258
1256
1254
1248
1248
1245
1240
1226
1211
1195
1179
1161
1157
1161
1166
1166
1162
1148
1129
1110
1103
1105
1112
1106
1092
1072
1057
1050
1050
1061
1078
1087
1081
1057
1030
1008
1002
1016
1035
1047
1049
1041
1033
1031
1028
1021
1012
1009
1016
1023
1024
1022
1020
1011
1012
1015
1023
1027
1028
1024
1021
1021
1027
1031
1031
1026
1016
1011
1015
1023
1026
1025
1017
1013
1011
1015
1022
1029
1038
1037
1029
1015
1003
993
987
996
1012
1029
1033
1024
1010
1000
1002
1011
1021
1016
1004
994
990
993
1002
1010
1015
1021
1025
1025
1020
1007
999
1002
1009
1013
1017
1020
1016
1005
993
990
995
1010
1026
1046
1061
1065
1056
1039
1029
1030
1038
1044
1053
1058
1063
1068
1073
1077
1080
1073
1065
1059
1055
1050
1040
1034
1035
1044
1055
1057
1050
1038
1021
1006
989
980
978
985
998
1009
1016
1011
1002
991
988
988
994
1000
1001
997
991
994
1001
1009
1019
1035
1066
1110
1160
1209
1254
1291
1328
1365
1397
1422
1431
1421
1398
1355
1301
1236
1173
1117
1071
1034
1014
1005
1004
997
994
986
979
972
969
963
965
968
970
974
979
981
981
977
967
952
945
943
949
958
972
977
975
970
963
955
948
947
946
949
953
962
973
981
986
980
971
961
953
943
940
940
941
940
942
943
951
952
949
940
931
920
913
910
910
908
903
895
894
892
893
891
892
897
910
919
918
909
897
890
886
888
892
904
923
939
942
935
929
932
947
964
972
971
967
966
975
992
1007
1013
1004
995
993
996
1006
1017
1024
1023
1019
1021
1023
1027
1028
1027
1024
1025
1029
1026
1022
1014
1011
1013
1022
1026
1025
1017
1014
1016
1027
1039
1042
1039
1027
1023
1022
1024
1031
1041
1050
1055
1059
1067
1072
1077
1076
1069
1063
1068
1080
1097
1115
1114
1111
1112
1118
1138
1160
1180
1189
1192
1201
1212
1231
1248
1264
1281
1298
1311
1323
1331
1338
1341
1340
1333
1322
1303
1273
1221
1146
1054
958
867
797
743
706
689
693
709
734
763
791
814
825
837
846
866
894
921
952
980
1005
1018
1019
1011
998
988
990
998
1010
1017
1027
1031
1029
1020
1013
1008
1011
1019
1028
1039
1045
1046
1036
1018
1008
1001
1005
1010
1017
1027
1034
1039
1042
1038
1030
1023
1031
1039
1043
1040
1034
1033
1033
1035
1045
1051
1053
1054
1063
1080
1089
1086
1063
1041
1031
1041
1054
1066
1079
1088
1103
1109
1102
1084
1067
1060
1058
1072
1085
1099
1112
1116
1107
1086
1066
1049
1038
1033
1030
1035
1044
1056
1066
1063
1053
1038
1033
1033
1038
1033
1025
1014
1007
1004
1011
1017
1028
1038
1042
1038
1025
1015
1010
1010
1013
1018
1021
1025
1031
1036
1037
1030
1018
1011
1009
1012
1021
1032
1044
1053
1057
1057
1051
1039
1018
999
990
990
998
1013
1023
1027
1024
1026
1028
1034
1037
1041
1029
1021
1013
1013
1017
1028
1036
1039
1045
1050
1054
1063
1071
1067
1054
1050
1053
1069
1083
1101
1106
1100
1088
1073
1070
1076
1088
1095
1087
1066
1047
1033
1027
1032
1037
1046
1051
1045
1034
1025
1020
1016
1011
1008
1009
1013
1016
1022
1028
1025
1017
1005
1000
1002
1012
1014
1013
1011
1016
1027
1054
1092
1140
1194
1245
1293
1337
1379
1409
1424
1426
1420
1405
1374
1331
1269
1205
1144
1101
1065
1041
1024
1012
1003
993
986
983
986
992
995
993
985
975
967
965
969
973
978
983
982
981
974
965
964
964
965
965
967
968
971
971
970
961
947
937
935
943
951
962
965
960
956
956
958
952
944
933
926
922
922
924
929
933
939
937
924
912
902
900
899
897
893
888
890
891
891
894
897
898
892
890
885
885
891
902
907
914
922
927
935
947
964
975
981
983
981
974
965
963
975
997
1010
1009
1002
991
985
984
990
1000
1010
1018
1020
1012
1004
999
999
1003
1006
1015
1014
1001
989
984
985
998
1015
1025
1024
1018
1009
1001
997
996
1000
1000
1000
1004
1010
1017
1018
1016
1014
1007
1003
1002
1007
1016
1030
1043
1046
1042
1038
1041
1046
1055
1066
1077
1083
1077
1057
1043
1038
1045
1052
1058
1059
1061
1063
1062
1053
1036
1019
1013
1013
1014
1014
1012
1008
1002
998
993
992
996
999
1001
998
997
997
1008
1018
1018
1009
999
1000
1014
1052
1101
1151
1200
1239
1275
1310
1346
1381
1409
1422
1422
1401
1363
1306
1238
1165
1103
1057
1019
996
985
981
984
984
981
981
983
988
994
993
987
978
966
961
960
960
963
962
960
960
960
958
956
957
960
966
969
967
964
961
955
951
954
963
966
964
961
956
952
947
945
944
945
947
944
942
935
933
931
928
924
921
917
919
926
927
923
910
900
890
887
893
907
921
938
945
940
927
913
905
909
919
933
944
959
974
985
988
983
975
970
974
983
995
1005
1010
1008
1003
996
991
989
991
996
1006
1019
1031
1038
1039
1029
1016
1010
1017
1037
1060
1077
1096
1105
1120
1142
1176
1206
1229
1237
1227
1198
1148
1072
982
889
805
734
676
629
599
578
563
557
554
561
566
578
593
610
634
663
694
724
747
765
779
795
811
826
840
849
856
863
880
898
918
950
973
1004
1033
1055
1074
1086
1094
1097
1098
1103
1109
1114
1117
1115
1112
1112
1110
1109
1117
1129
1141
1144
1139
1130
1131
1136
1145
1154
1167
1171
1177
1182
1188
1194
1197
1197
1190
1188
1196
1210
1222
1228
1224
1221
1222
1225
1230
1236
1236
1239
1243
1246
1247
1243
1237
1228
1218
1211
1202
1197
1191
1191
1184
1172
1159
1152
1146
1138
1134
1130
1126
1116
1100
1089
1083
1076
1073
1070
1062
1052
1047
1048
1050
1050
1043
1032
1023
1019
1022
1027
1027
1024
1018
1013
1016
1022
1025
1020
1014
1008
1007
1010
1022
1036
1042
1034
1019
1006
1001
1000
1010
1019
1023
1026
1029
1027
1021
1012
1008
1008
1008
1010
1013
1007
1001
996
995
997
1002
1010
1013
1014
1007
1004
1004
1000
1001
1006
1013
1017
1011
1003
993
988
989
994
999
1004
1005
1008
1014
1011
1006
999
997
1000
1002
1002
1001
994
990
987
987
990
993
996
999
1005
1004
998
992
989
993
994
1001
1009
1018
1019
1019
1020
1023
1023
1029
1027
1020
1010
1006
1009
1023
1044
1066
1073
1070
1065
1054
1047
1045
1046
1050
1049
1050
1051
1049
1052
1053
1059
1063
1059
1043
1025
1009
997
991
994
1001
1009
1014
1012
1004
991
990
988
986
984
991
1001
1007
1008
999
991
985
986
996
1018
1047
1085
1127
1172
1213
1257
1301
1344
1383
1411
1424
1416
1400
1371
1328
1266
1191
1125
1072
1040
1022
1015
1013
1009
1004
992
980
971
965
958
954
954
954
956
961
956
950
947
945
949
957
967
967
955
938
924
921
924
934
944
951
953
954
953
954
949
940
936
936
937
939
937
933
923
918
914
919
923
933
939
936
924
906
895
894
897
902
904
900
892
887
884
881
875
870
865
861
861
857
859
859
861
868
876
883
886
885
880
877
876
882
893
906
919
930
939
941
944
950
953
949
948
952
964
975
982
987
992
995
999
1003
1002
999
995
995
997
994
990
991
995
999
1005
1008
1014
1018
1025
1036
1046
1057
1067
1077
1086
1091
1096
1104
1115
1137
1160
1178
1184
1160
1108
1031
945
859
782
719
673
636
607
579
560
549
541
542
544
555
566
584
601
617
631
642
658
681
708
731
750
764
779
798
828
859
886
906
918
937
955
980
1012
1047
1077
1100
1111
1112
1105
1098
1094
1097
1108
1117
1121
1118
1116
1119
1124
1132
1135
1137
1143
1144
1156
1167
1166
1167
1167
1170
1172
1173
1175
1181
1190
1193
1194
1195
1200
1201
1208
1215
1223
1230
1232
1233
1235
1239
1242
1250
1260
1266
1268
1254
1238
1226
1217
1210
1212
1211
1207
1195
1185
1175
1168
1162
1154
1145
1136
1133
1133
1128
1115
1098
1083
1072
1066
1066
1066
1069
1071
1069
1074
1071
1068
1058
1035
1011
1001
1001
1005
1011
1013
1018
1020
1020
1024
1025
1022
1019
1016
1012
1011
1014
1020
1026
1029
1031
1035
1035
1024
1013
1001
991
986
991
1002
1010
1021
1024
1023
1018
1008
1001
990
986
990
1001
1014
1024
1026
1017
1004
990
987
984
988
993
996
999
1000
1007
1015
1017
1019
1015
1008
999
990
987
989
989
990
999
1008
1015
1018
1010
1000
991
985
983
988
996
1001
1005
1006
1010
1016
1024
1018
1007
999
996
1005
1015
1024
1039
1054
1060
1061
1062
1063
1062
1063
1063
1057
1053
1048
1050
1052
1053
1053
1048
1045
1043
1042
1041
1033
1024
1016
1009
1000
994
990
987
990
991
986
979
975
975
978
986
998
1005
1009
1003
989
983
975
973
978
997
1026
1056
1091
1125
1166
1207
1247
1285
1322
1356
1382
1403
1413
1407
1383
1333
1267
1193
1129
1083
1050
1032
1015
1002
994
988
973
962
952
949
953
953
954
952
951
943
941
941
942
944
949
949
950
949
949
947
943
938
932
930
931
938
943
951
951
946
936
926
917
917
920
926
926
919
916
915
916
918
916
908
901
898
898
900
903
897
894
889
882
877
877
879
878
872
864
859
853
847
845
844
850
856
867
873
870
863
848
833
832
836
844
854
865
874
885
893
901
907
917
922
927
927
931
935
938
943
949
954
961
967
979
988
990
983
973
963
956
957
959
967
975
979
983
985
987
989
992
984
979
975
970
966
971
976
981
981
978
970
963
965
967
968
969
969
977
981
988
993
998
1000
1001
1004
1005
1007
1009
1015
1021
1027
1033
1038
1043
1049
1052
1050
1042
1034
1035
1038
1035
1021
1005
988
980
979
985
993
992
985
973
964
956
953
960
969
980
987
993
1001
1005
1003
986
970
952
945
946
967
1007
1061
1116
1164
1197
1230
1266
1307
1347
1378
1391
1386
1365
1326
1271
1201
1132
1075
1032
1003
987
979
979
984
983
975
965
952
942
938
934
936
939
944
945
941
939
937
936
935
932
930
929
929
931
932
933
930
925
922
924
926
927
927
927
930
934
939
934
926
919
916
915
915
924
931
928
918
904
889
878
880
888
899
905
907
902
897
890
883
880
872
868
867
875
884
898
907
899
884
868
861
863
876
893
909
920
921
916
917
918
927
931
941
950
963
972
974
970
960
952
947
947
950
955
958
959
961
965
968
967
968
966
964
962
963
963
965
968
971
968
962
957
949
947
950
954
959
959
963
961
957
953
952
945
947
947
950
951
952
957
956
960
966
972
979
984
987
985
985
989
995
1003
1012
1020
1031
1044
1052
1054
1042
1018
996
980
974
975
981
983
987
986
983
975
971
967
967
960
954
947
944
944
945
949
950
954
954
953
955
952
952
949
945
947
948
957
974
997
1017
1028
1045
1065
1102
1147
1199
1255
1305
1350
1377
1384
1376
1355
1324
1273
1210
1143
1084
1037
1005
986
979
976
972
962
950
935
923
916
911
909
913
923
922
919
914
906
901
901
904
903
907
909
914
913
913
912
910
908
910
911
913
913
914
913
911
914
914
917
913
910
909
904
901
900
900
902
904
902
898
897
891
886
884
884
882
881
878
876
872
871
872
875
875
876
875
874
876
881
884
891
898
901
907
914
920
926
930
935
939
944
950
955
963
967
973
978
981
983
984
985
984
985
987
987
989
993
994
995
997
997
999
996
998
995
995
997
996
998
997
1003
1002
1006
1004
1004
1005
999
997
997
995
998
998
1000
999
997
992
991
994
999
1007
1011
1015
1017
1017
1019
1017
1017
1022
1028
1037
1048
1056
1064
1066
1062
1061
1061
1060
1059
1062
1060
1058
1057
1055
1053
1046
1041
1032
1026
1017
1008
1000
994
990
986
986
984
982
978
980
981
980
980
978
981
987
990
990
983
978
975
974
977
977
987
1006
1029
1055
1089
1127
1164
1205
1243
1281
1315
1348
1371
1387
1390
1375
1339
1279
1207
1135
1075
1037
1017
1005
1000
996
992
980
967
950
940
934
934
944
954
959
952
936
923
919
927
931
933
926
920
919
923
929
932
932
930
924
918
914
915
915
917
924
928
927
926
925
921
921
919
918
911
902
894
893
897
903
905
900
888
875
865
861
864
866
863
861
863
864
870
877
873
872
864
857
851
854
859
863
873
886
899
915
922
918
908
903
905
915
926
937
945
948
952
957
960
962
963
963
969
973
973
965
953
945
943
942
942
946
951
958
962
962
966
964
959
956
955
954
955
960
963
962
958
952
949
949
951
955
957
960
960
963
967
971
975
978
985
992
1004
1010
1008
998
983
973
975
988
1013
1024
1029
1021
1011
1002
997
996
1000
1006
1012
1014
1014
1011
1007
1004
998
985
968
958
946
940
935
940
946
951
958
961
966
969
971
976
977
981
978
966
945
929
925
930
953
985
1030
1079
1127
1175
1219
1263
1305
1339
1360
1370
1368
1351
1321
1271
1204
1135
1074
1029
995
971
960
957
957
954
949
943
935
928
917
903
892
885
885
892
901
908
909
909
901
896
893
890
888
890
892
897
904
910
912
907
899
890
884
884
889
897
904
903
896
884
872
861
859
865
875
875
872
866
863
863
870
878
878
875
868
859
853
851
850
848
846
840
834
830
832
836
846
849
846
841
834
829
828
831
837
845
850
856
859
866
872
881
890
903
912
920
926
930
932
937
938
942
948
958
965
963
949
938
931
931
939
947
954
959
962
962
956
942
932
926
931
940
949
949
946
940
936
938
942
946
948
952
958
964
968
968
968
963
961
965
972
980
996
1014
1034
1047
1062
1074
1089
1106
1123
1140
1162
1187
1218
1249
1269
1281
1287
1295
1303
1312
1314
1301
1277
1235
1176
1102
1016
923
835
769
721
692
687
697
714
738
759
775
786
791
802
814
828
849
868
891
905
911
911
903
898
901
899
903
903
907
918
928
933
926
916
903
899
901
907
916
923
918
912
905
904
911
918
917
915
912
903
901
898
901
899
903
910
918
925
927
928
928
924
922
919
921
925
932
938
942
943
943
943
947
953
962
967
973
980
980
977
972
970
973
977
980
983
980
980
978
978
973
968
963
961
963
970
976
981
986
984
984
981
974
964
954
945
941
949
954
955
949
941
940
942
949
956
961
962
959
957
953
950
949
955
963
971
976
976
970
956
945
940
941
944
951
958
960
963
959
955
948
947
948
956
964
971
974
969
956
940
932
930
939
950
962
966
966
964
963
958
954
952
949
950
953
960
964
965
961
953
948
945
946
947
951
955
954
956
958
964
974
984
990
996
998
998
1002
1002
1003
1002
1001
1000
996
997
1002
1011
1015
1015
1014
1009
1007
1009
1014
1021
1020
1015
1009
1003
998
995
985
979
975
973
975
981
984
979
970
959
952
951
956
964
971
974
975
975
971
963
954
949
950
960
977
1001
1033
1070
1112
1150
1188
1230
1270
1305
1335
1353
1358
1354
1336
1303
1258
1198
1139
1083
1038
1004
980
968
964
965
962
956
947
937
931
926
925
923
921
917
919
917
921
920
921
924
921
919
920
920
917
910
904
902
903
907
914
922
925
920
911
902
897
894
895
899
902
910
917
916
909
895
884
871
868
870
877
883
885
885
881
878
877
873
868
859
849
844
839
848
851
859
858
854
852
853
861
865
868
866
866
869
869
869
871
879
892
904
917
922
925
924
926
930
939
950
958
964
970
969
969
970
968
965
958
955
953
959
966
967
968
962
960
961
967
973
974
972
968
965
963
970
975
974
972
967
965
967
964
961
960
960
959
962
958
956
957
960
968
975
982
985
987
988
987
988
996
1004
1008
1014
1018
1020
1019
1018
1013
1007
1004
1005
1008
1008
1006
1002
994
987
973
962
958
959
968
971
967
957
948
944
948
953
957
961
960
954
946
939
935
930
930
941
951
962
971
981
992
1017
1054
1095
1129
1169
1210
1254
1297
1329
1347
1349
1338
1315
1280
1231
1172
1113
1057
1012
981
958
946
942
937
930
923
916
910
908
910
915
918
918
911
904
896
895
896
896
901
902
907
911
913
913
910
904
897
888
879
882
885
890
897
897
897
890
885
883
878
869
859
853
856
863
871
874
870
863
856
843
839
837
839
840
846
850
853
854
850
844
837
831
830
832
831
832
830
833
839
843
848
847
843
842
847
858
870
880
887
890
897
900
899
899
902
908
912
917
923
927
926
921
911
905
907
912
917
922
922
924
922
922
921
924
925
926
927
935
939
949
961
980
995
1014
1030
1054
1077
1099
1119
1128
1123
1094
1037
957
866
781
712
659
621
586
558
538
525
521
522
527
537
550
567
593
622
652
675
693
697
702
716
731
755
779
799
815
822
825
829
835
848
868
891
918
939
959
973
977
979
981
981
973
967
971
983
997
1009
1012
1008
1006
1007
1007
1010
1014
1016
1017
1017
1017
1017
1022
1032
1044
1054
1058
1062
1063
1068
1071
1070
1074
1077
1081
1087
1092
1095
1096
1096
1096
1100
1103
1098
1090
1086
1083
1087
1092
1090
1081
1067
1055
1044
1037
1030
1023
1018
1014
1010
1002
996
986
973
962
953
947
948
947
951
950
944
935
926
921
913
909
906
908
906
905
903
903
902
899
901
899
902
903
900
896
894
895
896
900
902
903
903
902
903
900
896
897
895
893
888
886
885
890
893
897
899
898
895
893
889
891
891
891
891
894
896
892
890
891
885
885
885
887
888
892
894
893
893
890
884
879
881
886
889
893
893
895
892
892
891
889
885
883
884
885
884
886
885
892
898
905
904
900
895
888
885
886
893
899
902
910
916
920
922
921
918
917
919
928
937
945
949
950
951
952
950
950
948
947
943
943
941
940
940
940
939
937
933
926
919
907
906
903
900
899
895
897
896
891
890
885
879
879
881
887
893
896
896
893
891
889
897
914
943
978
1021
1062
1101
1139
1177
1216
1255
1289
1312
1319
1315
1296
1257
1198
1130
1058
998
954
926
913
911
909
906
897
882
875
864
862
867
870
871
867
867
866
863
857
852
850
849
851
855
859
863
858
855
853
851
850
851
858
864
865
865
863
858
854
853
853
848
842
838
841
842
847
850
850
846
840
837
834
830
826
823
819
817
812
808
810
813
813
812
807
800
796
792
791
794
793
795
791
786
783
779
782
785
789
791
795
804
810
816
825
831
833
834
838
840
845
849
856
864
875
884
895
895
895
899
903
906
909
909
907
905
903
902
906
911
911
911
908
900
905
908
915
921
920
922
920
918
917
918
921
924
925
922
917
914
914
919
923
930
930
927
919
919
921
931
941
950
954
956
960
961
965
969
976
980
988
1001
1013
1024
1037
1056
1077
1099
1119
1142
1155
1167
1178
1193
1209
1226
1241
1263
1281
1297
1308
1306
1295
1274
1240
1195
1127
1040
950
856
776
715
672
649
639
641
651
666
690
712
732
745
762
779
794
812
826
844
857
863
866
866
868
871
873
872
871
867
866
866
866
869
875
880
881
879
877
874
869
868
868
868
871
870
871
870
871
868
872
873
873
872
873
872
872
869
865
866
867
874
879
882
882
883
885
887
890
892
892
895
900
903
908
913
916
920
923
924
924
922
927
935
943
948
955
958
960
956
951
943
941
939
946
946
947
945
938
932
926
926
925
925
925
922
923
921
921
921
920
925
929
931
928
921
920
921
927
930
931
926
923
920
919
921
921
922
921
923
930
928
925
924
923
927
925
925
928
928
930
933
934
934
933
935
935
932
929
927
929
931
933
939
946
950
951
947
940
931
928
928
932
938
938
938
935
935
938
945
950
955
956
958
956
959
962
969
974
978
983
987
993
998
1002
1012
1015
1015
1004
996
989
990
997
1002
1006
1006
1006
1002
994
987
978
971
969
966
963
956
950
948
948
949
952
949
944
941
938
937
942
943
947
948
948
948
945
945
944
947
965
988
1024
1073
1127
1177
1223
1263
1295
1322
1346
1365
1374
1370
1357
1323
1268
1190
1107
1037
987
963
953
955
959
962
963
955
944
934
923
919
920
922
926
925
925
923
920
918
919
920
921
923
923
922
923
921
918
912
910
912
919
924
930
934
932
926
921
912
909
907
907
911
915
920
919
918
914
909
905
900
895
888
882
881
883
885
885
885
880
872
869
864
865
864
864
861
862
863
865
871
871
871
866
861
863
869
877
889
899
909
915
920
922
923
926
931
940
951
956
961
967
968
968
970
970
972
972
972
977
979
980
976
972
971
972
976
976
977
976
975
974
972
971
971
974
979
981
987
987
984
980
974
973
975
977
984
988
989
987
983
981
983
989
995
1004
1007
1009
1011
1014
1018
1019
1022
1024
1034
1041
1050
1056
1057
1052
1043
1037
1031
1034
1035
1038
1039
1041
1037
1033
1024
1021
1018
1016
1009
1005
1002
1000
997
993
991
988
987
985
984
983
983
980
978
982
984
980
980
981
982
983
990
1000
1029
1062
1106
1152
1197
1236
1272
1306
1342
1370
1393
1406
1406
1391
1362
1311
1240
1160
1090
1039
1008
995
986
989
994
992
990
983
974
968
962
962
964
968
969
969
969
962
960
959
958
962
962
964
963
961
962
964
969
971
974
975
972
971
967
964
964
966
968
968
972
975
976
972
971
968
964
958
956
952
952
955
956
955
949
946
940
937
933
932
934
935
938
939
940
939
940
943
948
951
951
946
939
938
943
950
963
973
982
986
991
990
993
997
1002
1007
1015
1022
1028
1027
1029
1030
1030
1024
1024
1027
1030
1037
1038
1039
1038
1038
1038
1039
1041
1044
1049
1055
1061
1070
1078
1088
1100
1121
1140
1154
1172
1195
1221
1244
1265
1269
1255
1215
1145
1052
952
859
791
740
705
678
656
639
627
620
621
625
631
642
657
680
711
746
781
803
824
835
845
859
877
899
919
936
947
951
961
973
989
1003
1023
1044
1072
1095
1114
1125
1130
1128
1126
1126
1128
1133
1139
1145
1148
1153
1152
1152
1153
1153
1158
1166
1175
1180
1185
1188
1190
1191
1195
1199
1205
1209
1215
1220
1227
1233
1238
1245
1248
1251
1250
1253
1255
1259
1260
1263
1263
1265
1262
1260
1258
1254
1247
1240
1232
1224
1217
1211
1205
1200
1194
1185
1178
1167
1158
1149
1144
1136
1132
1126
1119
1116
1110
1102
1095
1090
1084
1080
1076
1075
1073
1072
1071
1069
1065
1063
1060
1057
1055
1056
1055
1054
1055
1053
1055
1056
1055
1055
1056
1055
1051
1053
1052
1052
1052
1053
1053
1054
1053
1051
1052
1049
1050
1050
1049
1048
1045
1044
1043
1043
1043
1041
1039
1037
1042
1038
1037
1037
1039
1038
1038
1038
1038
1036
1038
1036
1033
1032
1031
1033
1031
1034
1034
1035
1035
1033
1031
1031
1028
1027
1025
1024
1025
1027
1027
1028
1029
1029
1028
1026
1027
1027
1025
1025
1023
1023
1025
1027
1028
1028
1029
1030
1033
1033
1035
1039
1042
1045
1048
1051
1056
1060
1061
1064
1065
1071
1076
1083
1086
1088
1086
1081
1077
1075
1075
1075
1077
1077
1072
1068
1063
1057
1052
1047
1041
1035
1031
1026
1026
1021
1016
1014
1010
1012
1011
1012
1012
1011
1012
1016
1018
1020
1016
1012
1008
1006
1012
1026
1049
1086
1124
1166
1209
1246
1284
1324
1360
1393
1411
1418
1410
1387
1345
1280
1207
1134
1079
1045
1029
1023
1020
1019
1015
1005
994
988
980
977
976
979
980
980
978
975
975
971
967
959
951
947
948
946
946
942
943
945
950
953
953
952
949
946
942
937
932
932
931
931
928
928
928
926
923
916
912
908
907
904
907
900
895
888
882
879
879
881
881
877
870
861
849
842
842
843
847
850
852
852
854
851
848
841
841
847
853
860
868
874
879
885
891
897
903
906
906
910
914
923
936
944
947
944
942
942
943
947
948
947
942
943
946
950
955
960
963
963
962
960
959
954
951
948
947
943
945
947
948
949
950
949
944
945
942
936
939
938
941
943
944
943
944
945
947
954
962
968
976
978
977
968
958
955
960
969
984
995
1001
1002
999
994
986
982
979
979
981
980
974
969
964
955
949
942
937
934
931
928
924
920
915
908
904
907
910
916
921
926
922
925
926
928
929
940
952
967
975
990
1006
1029
1068
1112
1162
1211
1256
1294
1325
1344
1353
1349
1326
1278
1212
1120
1018
917
838
792
790
811
839
863
879
889
893
894
892
889
887
890
894
897
896
894
891
888
883
884
889
896
901
905
907
904
899
893
889
891
894
896
898
899
904
904
895
889
884
885
882
884
881
878
879
879
881
882
882
885
885
884
881
877
876
870
867
869
865
864
862
861
866
866
862
858
858
857
858
859
864
868
878
879
884
889
891
896
897
896
898
901
911
920
931
936
938
932
927
920
922
921
920
919
919
924
926
925
923
919
915
910
912
914
916
917
917
916
918
919
922
923
925
926
926
922
916
916
918
921
922
922
923
922
923
925
922
923
927
932
938
945
953
955
954
953
949
945
942
