Time,Modified_Signal
0.0,0.00066862261408684
0.00025,-1.4601630481425112e-05
0.0005,-0.0006418799672581695
0.00075,-0.0011161995590117917
0.001,-0.0014660110668250276
0.00125,-0.0017976227339461665
0.0015,-0.0021719976825965172
0.00175,-0.002550116236875009
0.002,-0.002823190051339027
0.00225,-0.0028806415942214734
0.0025,-0.0026966938438500354
0.00275,-0.002345646127673564
0.003,-0.001966876100873336
0.00325,-0.0016815499467444407
0.0035,-0.001542674958163059
0.00375,-0.001514149825548663
0.004,-0.0015151461234610946
0.00425,-0.0014751607250390252
0.0045,-0.0013692963581417973
0.00475,-0.001215597714184731
0.005,-0.001050250988959796
0.00525,-0.0008948686490502528
0.0055,-0.0007483254204379868
0.00575,-0.0005975634320273502
0.006,-0.0004367727138355533
0.00625,-0.00027619648749961016
0.0065,-0.00013448668478215244
0.00675,-1.8018432553234316e-05
0.007,8.86814577573635e-05
0.00725,0.00021605354200977253
0.0075,0.00038806551597127844
0.00775,0.0006055407600462324
0.008,0.0008334257157196576
0.00825,0.0010330734852554801
0.0085,0.0011820567141335298
0.00875,0.001285782346909966
0.009,0.0013689619656175286
0.00925,0.0014664990132393998
0.0095,0.001596480776811706
0.00975,0.001747421532234403
0.01,0.0018924736213952477
0.01025,0.0020101277943303524
0.0105,0.0020937653927821822
0.01075,0.0021512936276163463
0.011,0.0021923466846643317
0.01125,0.002224045886899373
0.0115,0.0022368403220835117
0.01175,0.002230462509538761
0.012,0.0021988930545977004
0.01225,0.0021552527631447304
0.0125,0.002114184993871715
0.01275,0.002075322734109381
0.013,0.002033908837485085
0.01325,0.0019644727993952064
0.0135,0.0018557585960653378
0.01375,0.0017104702330230021
0.014,0.0015443395197190831
0.01425,0.0013843034912789933
0.0145,0.0012464298829817622
0.01475,0.001124763906362904
0.015,0.0010029444385589263
0.01525,0.000867036700011043
0.0155,0.0007051425333017741
0.01575,0.0005251978500872813
0.016,0.0003443436008445521
0.01625,0.0001686171497092233
0.0165,3.129883773128268e-06
0.01675,-0.0001543346801991884
0.017,-0.0003090868986784718
0.01725,-0.00045954920920103916
0.0175,-0.0006001928710692846
0.01775,-0.0007267140527754732
0.018,-0.0008424878926012975
0.01825,-0.0009568043808611017
0.0185,-0.001079096404948694
0.01875,-0.0012104322757039254
0.019,-0.001340319111342926
0.01925,-0.0014524723020348743
0.0195,-0.0015353554193584334
0.01975,-0.0015895443598369443
0.02,-0.001628463834405222
0.02025,-0.00166799876443216
0.0205,-0.0017184013404104134
0.02075,-0.0017762305604988378
0.021,-0.001829347572781687
0.02125,-0.00186516035038951
0.0215,-0.0018779611120740224
0.02175,-0.0018718203381781339
0.022,-0.0018544263968666812
0.02225,-0.0018310660438579111
0.0225,-0.0018021030269395949
0.02275,-0.001764832313971217
0.023,-0.001718195380760349
0.02325,-0.0016654236557020724
0.0235,-0.0016113881233734985
0.02375,-0.0015573241874668512
0.024,-0.0014985465077086916
0.02425,-0.0014245492578624072
0.0245,-0.0013274997680178553
0.02475,-0.0012077695872592371
0.025,-0.0010762091042988903
0.02525,-0.0009461263050010869
0.0255,-0.0008269405840812255
0.02575,-0.0007162728096057273
0.026,-0.0006028957606663818
0.02625,-0.00047322721010553074
0.0265,-0.0003216633417895849
0.02675,-0.00015116011914311116
0.027,2.7298018745905756e-05
0.02725,0.0002031499807194243
0.0275,0.00036963055281709036
0.02775,0.0005259209725436398
0.028,0.0006725089070935261
0.02825,0.0008134755256754746
0.0285,0.0009450181680693056
0.02875,0.0010618579730794313
0.029,0.00116792270831682
0.02925,0.0012614779229174167
0.0295,0.0013478176426473072
0.02975,0.0014247103868412713
0.03,0.0014802739518710397
0.03025,0.0015056430771476267
0.0305,0.0014986359571386653
0.03075,0.00145995511281116
0.031,0.0014078694548821913
0.03125,0.0013579217313572543
0.0315,0.0013158335781696558
0.03175,0.0012830091242736063
0.032,0.0012471001847632229
0.03225,0.0011955303876039368
0.0325,0.0011235940242864562
0.03275,0.0010348249676385122
0.033,0.0009380898152382376
0.03325,0.0008430548452018222
0.0335,0.0007543355895343909
0.03375,0.0006714833183790264
0.034,0.0005894373480880424
0.03425,0.0005001210246216389
0.0345,0.0003910927740164468
0.03475,0.000249420737210676
0.035,7.154812283043578e-05
0.03525,-0.00013068232295358108
0.0355,-0.000328813509197725
0.03575,-0.0004690598013578582
0.036,-0.000506061470509888
0.03625,-0.00038969386385113536
0.0365,-9.876419188709541e-05
0.03675,0.00034334522541179676
0.037,0.0008710600895815834
0.03725,0.0014021918609438456
0.0375,0.0018350515442664222
0.03775,0.0020768699108739785
0.038,0.0020778987143277553
0.03825,0.0017843598792455083
0.0385,0.0012539238185501878
0.03875,0.0005749554957075571
0.039,-0.00016197554183130204
0.03925,-0.0008664834911332172
0.0395,-0.0014591279330621507
0.03975,-0.0018853352814998043
0.04,-0.0021120588375099832
0.04025,-0.002155417733994712
0.0405,-0.002077081742323738
0.04075,-0.001940675083263797
0.041,-0.0017995409193906184
0.04125,-0.0016799590482659446
0.0415,-0.0015960496677973612
0.04175,-0.0015398536886613487
0.042,-0.0014936080305094856
0.04225,-0.0014438406963457357
0.0425,-0.001388917043804464
0.04275,-0.0013279421729828378
0.043,-0.001260358647715638
0.04325,-0.0011833985160008833
0.0435,-0.001098401069980177
0.04375,-0.001009567258057959
0.044,-0.0009226171985288418
0.04425,-0.0008378153889516414
0.0445,-0.0007510714156008391
0.04475,-0.0006513751388673716
0.045,-0.0005322311926266932
0.04525,-0.00039115757313660333
0.0455,-0.00023720718676677869
0.04575,-8.542719203353726e-05
0.046,5.2470004926000096e-05
0.04625,0.00017681969002591796
0.0465,0.0002986023439851374
0.04675,0.0004226050935949331
0.047,0.0005604821395967913
0.04725,0.0007071400818299399
0.0475,0.0008523572554147208
0.04775,0.0009879278924611427
0.048,0.001111495105432439
0.04825,0.0012224022597114577
0.0485,0.00132459015836978
0.04875,0.0014182186770782745
0.049,0.0014972405467624482
0.04925,0.0015640965127167307
0.0495,0.0016131895720381422
0.04975,0.0016511863806814334
0.05,0.0016837671524806426
0.05025,0.001709320877167245
0.0505,0.0017259299207554662
0.05075,0.0017236552704872577
0.051,0.001697383264608247
0.05125,0.001642270651896798
0.0515,0.0015720905106372154
0.05175,0.0014976981323141087
0.052,0.0014245473694829537
0.05225,0.0013524002807635722
0.0525,0.0012756103086935336
0.05275,0.0011837898572769703
0.053,0.0010749206394136293
0.05325,0.0009516566062357004
0.0535,0.0008252098436424651
0.05375,0.0006961313987669722
0.054,0.0005725905655540642
0.05425,0.0004452893229043047
0.0545,0.00031617067251234904
0.05475,0.0001881392827325898
0.055,6.20964032967715e-05
0.05525,-5.304256771938564e-05
0.0555,-0.00016312728958824284
0.05575,-0.00027040323375930093
0.056,-0.0003839644652744557
0.05625,-0.0005028715093671239
0.0565,-0.000623093529105159
0.05675,-0.000733109162575715
0.057,-0.0008263133270918002
0.05725,-0.0009016272313735635
0.0575,-0.0009669157225821157
0.05775,-0.001031366658819047
0.058,-0.0011010951113253657
0.05825,-0.0011733214272688724
0.0585,-0.0012411955782843799
0.05875,-0.0012967215543487468
0.059,-0.0013384115263685072
0.05925,-0.0013687166623744128
0.0595,-0.0013934476265583023
0.05975,-0.0014147182118595762
0.06,-0.0014301515636124982
0.06025,-0.0014353236161478479
0.0605,-0.0014295608633243535
0.06075,-0.0014152605629012662
0.061,-0.0013993482681230402
0.06125,-0.0013851568109744764
0.0615,-0.0013705675904895926
0.06175,-0.0013472342576804485
0.062,-0.001307041563841939
0.06225,-0.0012473588862076202
0.0625,-0.0011739929747503566
0.06275,-0.0010973479937599444
0.063,-0.0010253901721684658
0.06325,-0.0009578593670671521
0.0635,-0.0008877334088637165
0.06375,-0.000805361504702772
0.064,-0.0007061034087959241
0.06425,-0.0005914741743847819
0.0645,-0.00046810242082910927
0.06475,-0.00034123616191174955
0.065,-0.0002132853868436722
0.06525,-8.078301091179457e-05
0.0655,6.010680841656086e-05
0.06575,0.00020593984666527238
0.066,0.0003486135257905783
0.06625,0.00048212473423491235
0.0665,0.0006037527216934598
0.06675,0.0007138633750945565
0.067,0.000824463954379191
0.06725,0.0009360352693352559
0.0675,0.0010432707856410635
0.06775,0.0011330450168679442
0.068,0.0011953817313479476
0.06825,0.0012250023469918363
0.0685,0.0012278875600769128
0.06875,0.0012146244780453837
0.069,0.0011959575913962788
0.06925,0.0011773997651036605
0.0695,0.0011518509200281212
0.06975,0.0011179836288331955
0.07,0.0010707632826072184
0.07025,0.001012061172498673
0.0705,0.0009464171372116849
0.07075,0.0008806402459432811
0.071,0.00081054752187787
0.07125,0.0007330355304820702
0.0715,0.0006462303356494073
0.07175,0.0005570293826458989
0.072,0.0004736046543066528
0.07225,0.0004010610007322224
0.0725,0.00033233995651682936
0.07275,0.0002530543285590674
0.073,0.00014074743397911438
0.07325,-1.7378433970083514e-05
0.0735,-0.00022352425248986724
0.07375,-0.00044253566110063445
0.074,-0.0006206384805889338
0.07425,-0.0007050357524615278
0.0745,-0.0006693849084488354
0.07475,-0.0004988594462391925
0.075,-0.00019714178176281368
0.07525,0.00023883485054883262
0.0755,0.0007520564841132351
0.07575,0.001250243978025645
0.076,0.0016600572430955478
0.07625,0.001904832801610403
0.0765,0.0018986819585232288
0.07675,0.0015960945952135266
0.077,0.0010408847369863146
0.07725,0.0003553977355634459
0.0775,-0.00037040414520832156
0.07775,-0.0010637447919553391
0.078,-0.001651372916598646
0.07825,-0.0020771825536137984
0.0785,-0.0023183582465762177
0.07875,-0.0023846403158040413
0.079,-0.0023088584556209416
0.07925,-0.002143804847583556
0.0795,-0.0019613329047003273
0.07975,-0.0018261495085131058
0.08,-0.0017537786206576012
0.08025,-0.0017282125735870312
0.0805,-0.0017173322514105504
0.08075,-0.0016924185958104418
0.081,-0.0016363722466969433
0.08125,-0.0015528234188420336
0.0815,-0.0014587912675477035
0.08175,-0.0013695696191374422
0.082,-0.0012894291750938684
0.08225,-0.0012140516467757146
0.0825,-0.0011357396904561985
0.08275,-0.0010509405984526746
0.083,-0.0009596943200399092
0.08325,-0.0008618946483109619
0.0835,-0.0007481236439596758
0.08375,-0.000611737664438299
0.084,-0.0004483620295720472
0.08425,-0.00026512063832431624
0.0845,-8.120748625539498e-05
0.08475,8.206399797047284e-05
0.085,0.00021181831117641665
0.08525,0.00031968172149470317
0.0855,0.0004293991467069942
0.08575,0.0005666246990565676
0.086,0.0007399022001591882
0.08625,0.0009390054568470708
0.0865,0.001133273944269899
0.08675,0.001297736091619239
0.087,0.0014255202772844322
0.08725,0.001520218597828542
0.0875,0.0016010447080933845
0.08775,0.0016833832347663892
0.088,0.0017705631407875576
0.08825,0.0018489184565927453
0.0885,0.001917362418704943
0.08875,0.00197530099623542
0.089,0.0020291361703353734
0.08925,0.002080369203253761
0.0895,0.002118083762000898
0.08975,0.0021215975102199833
0.09,0.0020751357009819306
0.09025,0.001987040119613595
0.0905,0.0018826222993729637
0.09075,0.0017955605075933591
0.091,0.0017530880215726238
0.09125,0.001740453486276305
0.0915,0.0017259392695931047
0.09175,0.0016684660306825342
0.092,0.0015477588297634183
0.09225,0.0013775372924842966
0.0925,0.0011948081184197017
0.09275,0.0010402951926790965
0.093,0.0009217582959185304
0.09325,0.000826232579244826
0.0935,0.0007293117217685431
0.09375,0.0006185209315437585
0.094,0.0004972969246523823
0.09425,0.0003817949337476823
0.0945,0.00027316505431827765
0.09475,0.0001527384213081216
0.095,-5.021928686190567e-06
0.09525,-0.00020988227180185071
0.0955,-0.00043054220358339327
0.09575,-0.0006075767104707876
0.096,-0.0006859975515613055
0.09625,-0.0006643127773729094
0.0965,-0.0006071222447833924
0.09675,-0.0006198092936664434
0.097,-0.0007783597337218452
0.09725,-0.0010771129992854932
0.0975,-0.0014130314696807692
0.09775,-0.001644519881269306
0.098,-0.0016726900023811438
0.09825,-0.0015154053654470067
0.0985,-0.0012979174026960408
0.09875,-0.0011926025284893097
0.099,-0.0013019728905856144
0.09925,-0.0016070833510205334
