Time,Modified_Signal
0.0,-0.00025829603149778895
0.003,-0.0002359212461036034
0.006,-0.0002025602000179293
0.009000000000000001,-0.00019448614473640278
0.012,-0.00020175731143508906
0.015000000000000001,-0.00018446428618406168
0.018000000000000002,-0.00014671250470274088
0.021,-0.00015021962125938635
0.024,-0.00023838924310207787
0.027000000000000003,-0.00031964312724611056
0.030000000000000002,-0.00025975002403819895
0.033,-1.0745730271834785e-05
0.036000000000000004,0.00025121884151822445
0.039,0.00042012528358288556
0.042,0.000670473379429105
0.045000000000000005,0.0010126628330553611
0.048,0.0010742862019097997
0.051000000000000004,0.0008289003900355421
0.054000000000000006,0.0005951283460252406
0.057,0.0004328193928215719
0.060000000000000005,0.0002346847673336472
0.063,1.5229272232373108e-05
0.066,-7.283571647846906e-05
0.069,1.5850807941909247e-07
0.07200000000000001,0.00011500328846429281
0.07500000000000001,0.00017049281489197397
0.078,0.00013907379531143983
0.081,9.937280159603274e-05
0.084,7.733443958947042e-05
0.08700000000000001,4.263211688606068e-05
0.09000000000000001,-3.0865146035237164e-06
0.093,-3.674068836282365e-05
0.096,5.358822474383815e-06
0.099,4.7045313189252995e-05
0.10200000000000001,6.44163222993423e-05
0.10500000000000001,8.386519216647842e-06
0.10800000000000001,-5.347855728229776e-05
0.111,-0.00011907937409444291
0.114,-0.00013822437424685898
0.117,-0.0001845922164701163
0.12000000000000001,-0.0002215376269467527
0.12300000000000001,-0.00024314414228133254
0.126,-0.00027632440427878487
0.129,-0.00033418484140191284
0.132,-0.0004185692312869471
0.135,-0.000553892134641686
0.138,-0.0006733225530079233
0.14100000000000001,-0.0007372912750117797
0.14400000000000002,-0.0007951571516483022
0.14700000000000002,-0.0008630470370285296
0.15000000000000002,-0.000921662738999638
0.153,-0.0009688156665779888
0.156,-0.0010258317627405544
0.159,-0.0010935444614776323
0.162,-0.00117641934001053
0.165,-0.0012376914918800922
0.168,-0.0012598697192374427
0.171,-0.0012434238384582846
0.17400000000000002,-0.0012444105938350077
0.17700000000000002,-0.0012380012616086504
0.18000000000000002,-0.0012330620184946698
0.18300000000000002,-0.0012253056750473699
0.186,-0.0012191045273927178
0.189,-0.0012210581969356042
0.192,-0.0012214146290365296
0.195,-0.0011800613175400898
0.198,-0.0011363937060022478
0.201,-0.0010786051067213395
0.20400000000000001,-0.001040527619502307
0.20700000000000002,-0.001003554825140268
0.21000000000000002,-0.0009443161795408835
0.21300000000000002,-0.0008871607782081333
0.21600000000000003,-0.0008272619990597516
0.219,-0.00076392036097726
0.222,-0.0006708280291060753
0.225,-0.000611229443791055
0.228,-0.0005274330136857027
0.231,-0.0004826761735572538
0.234,-0.00043413094080156975
0.23700000000000002,-0.00042021874987171543
0.24000000000000002,-0.0003818631347226277
0.24300000000000002,-0.00034001103228998084
0.24600000000000002,-0.00032997044363509444
0.24900000000000003,-0.00030822296087944565
0.252,-0.0002964572348699602
0.255,-0.00028803726039828637
0.258,-0.00028538994770756877
0.261,-0.00029576929742270786
0.264,-0.000306668881227582
0.267,-0.00028272459926215486
0.27,-0.00027761813482717653
0.273,-0.0002740375396941187
0.276,-0.0002630557092875407
0.279,-0.0002764807764305104
0.28200000000000003,-0.0002833186197106336
0.28500000000000003,-0.00028704890922151934
0.28800000000000003,-0.0002917085433589756
0.29100000000000004,-0.00027808335368788057
0.29400000000000004,-0.00025424903530464924
0.29700000000000004,-0.00023401851286565978
0.30000000000000004,-0.00017647746685006528
0.303,-0.00018981852304563436
0.306,-0.00015891003848054442
0.309,-0.00017111625465850998
0.312,-0.0001639073318495463
0.315,-0.00015238249876475197
0.318,-0.00014542722030756953
0.321,-0.000126658401240924
0.324,-0.00010115828010113832
0.327,-8.846442075928306e-05
0.33,-7.802408502506464e-05
0.333,-8.846175513379528e-05
0.336,-9.169270558281981e-05
0.339,-8.928012605348311e-05
0.342,-8.1290983975186e-05
0.34500000000000003,-6.31580313158335e-05
0.34800000000000003,-4.92848529284188e-05
0.35100000000000003,-3.9729186827287085e-05
0.35400000000000004,-1.809218330350175e-05
0.35700000000000004,-2.7120588064449757e-05
0.36000000000000004,-4.778056402294497e-05
0.36300000000000004,-3.602414622164292e-05
0.36600000000000005,-4.889226800844064e-05
0.369,-2.6040579394896567e-05
0.372,-2.454835478516407e-05
0.375,7.034545353866202e-06
0.378,7.874127716672007e-06
0.381,1.583786466235089e-05
0.384,7.410808154246821e-06
0.387,6.325170657116192e-06
0.39,1.1855562469066812e-06
0.393,9.228048448402712e-06
0.396,2.396267360503189e-05
0.399,4.085292556115809e-05
0.402,5.376283984102737e-05
0.405,6.038595004197999e-05
0.40800000000000003,6.266586278309488e-05
0.41100000000000003,4.173113944072363e-05
0.41400000000000003,5.447821066912053e-05
0.41700000000000004,5.476095372903368e-05
0.42000000000000004,4.862744348481696e-05
0.42300000000000004,7.437406613908193e-05
0.42600000000000005,9.075439397166477e-05
0.42900000000000005,9.190614975809791e-05
0.43200000000000005,9.128187268066926e-05
0.435,8.770351301124805e-05
0.438,8.801872894795211e-05
0.441,9.423903046527913e-05
0.444,7.601619340062692e-05
0.447,0.00011565405311907689
0.45,0.00012261406210943335
0.453,0.00012374186196209173
0.456,0.00012756979801298
0.459,0.00012161166311962347
0.462,0.00012142441889525436
0.465,0.00010839965373132557
0.468,0.00011341025145299519
0.47100000000000003,0.00011753101702262682
0.47400000000000003,0.000127523253692409
0.47700000000000004,0.00014618962151473743
0.48000000000000004,0.00013776232409276512
0.48300000000000004,0.00012402849987997464
0.48600000000000004,0.00012144897175892412
0.48900000000000005,0.00012099167995662835
0.49200000000000005,0.00012052323894987903
0.49500000000000005,9.91122736919711e-05
0.49800000000000005,0.00011468289140298544
0.501,0.00014830950631450115
0.504,0.0001223232118165151
0.507,0.0001077922370958658
0.51,0.00010317830060585684
0.513,9.277856327869071e-05
0.516,8.144073851202232e-05
0.519,6.585336658821837e-05
0.522,7.210919878078455e-05
0.525,6.979039221141407e-05
0.528,7.742485527839277e-05
0.531,6.0843890742945135e-05
0.534,3.774988616013062e-05
0.537,1.5873131820996937e-05
0.54,4.866395114725525e-06
0.543,2.768601606697797e-06
0.546,-2.4514966728768495e-05
0.549,-1.6414998914897263e-05
0.552,-2.2860022886976177e-05
0.555,-2.0104906656932084e-05
0.558,-5.470353431993503e-05
0.561,-7.477582741152943e-05
0.5640000000000001,-9.140568631628863e-05
0.5670000000000001,-0.00011169447309010793
0.5700000000000001,-0.00011059018011118193
0.5730000000000001,-0.00011657896821497089
0.5760000000000001,-0.00011850094523464315
0.5790000000000001,-0.00011470938851768779
0.5820000000000001,-0.00011353005949027618
0.5850000000000001,-0.00014124179540325727
0.5880000000000001,-0.00014885395815938295
0.5910000000000001,-0.000167585929500605
0.5940000000000001,-0.00016418568392923225
0.5970000000000001,-0.0001747225492856705
0.6000000000000001,-0.00016529593676249896
0.603,-0.00016342616205409382
0.606,-0.00017469172719012462
0.609,-0.0001730064732012237
0.612,-0.0001919671068314473
0.615,-0.00020480479740409731
0.618,-0.00020187000774841982
0.621,-0.00021203675264902386
0.624,-0.00019978361527012834
0.627,-0.00018860545286672427
0.63,-0.00018875839420036123
0.633,-0.0001992137883588134
0.636,-0.0002021850759981314
0.639,-0.0002044845880734154
0.642,-0.00021647402729099463
0.645,-0.00022293294430146456
0.648,-0.00021511601089183768
0.651,-0.00019436595879509264
0.654,-0.00021172549230452525
0.657,-0.0002009229612417068
0.66,-0.000210380364813783
0.663,-0.00021164640517219008
0.666,-0.00022633728995320805
0.669,-0.00022206278553787016
0.672,-0.00020583307950583808
0.675,-0.00021976944518154647
0.678,-0.0001938021879632582
0.681,-0.0002038214405839353
0.684,-0.00019842492790911952
0.687,-0.00021709351993791484
0.6900000000000001,-0.00021842978597308357
0.6930000000000001,-0.00021623022834412866
0.6960000000000001,-0.0002118645690416539
0.6990000000000001,-0.00022337041594894293
0.7020000000000001,-0.00019569693341068702
0.7050000000000001,-0.00020752634383073258
0.7080000000000001,-0.00021344106965676162
0.7110000000000001,-0.0002217030571146223
0.7140000000000001,-0.00022445505687819224
0.7170000000000001,-0.00023414261370353545
0.7200000000000001,-0.00022878639386163596
0.7230000000000001,-0.00020904703438799342
0.7260000000000001,-0.00022446441894663643
0.7290000000000001,-0.00020834292156127258
0.7320000000000001,-0.00021059500035262768
0.735,-0.0002341230950472419
0.738,-0.00024896844680310495
0.741,-0.000246521767008204
0.744,-0.0002586404205336046
0.747,-0.00023352664931035463
0.75,-0.0002383967659794249
0.753,-0.0002305302733965392
0.756,-0.00022762802049067473
0.759,-0.0002355210676539742
0.762,-0.00026515967444323005
0.765,-0.0002760246030133828
0.768,-0.00028803456876051265
0.771,-0.00027861313792453907
0.774,-0.0002646766901007546
0.777,-0.00026809396573028465
0.78,-0.0002621591702751683
0.783,-0.0002696452148002631
0.786,-0.00028772116140983613
0.789,-0.00030666479594135786
0.792,-0.0003264516098944355
0.795,-0.00034165097532033386
0.798,-0.00031514773375072977
0.801,-0.00029984014909309253
0.804,-0.000298838500752659
0.807,-0.00031211745198494903
0.81,-0.0003016745027458065
0.8130000000000001,-0.0003262133910647091
0.8160000000000001,-0.00033108063210041247
0.8190000000000001,-0.00035346212025790484
0.8220000000000001,-0.0003403067692377969
0.8250000000000001,-0.0003115316935336773
0.8280000000000001,-0.00029775778704952603
0.8310000000000001,-0.00029581636844136543
0.8340000000000001,-0.00030414956808254176
0.8370000000000001,-0.00033385327648298603
0.8400000000000001,-0.00034752658701711967
0.8430000000000001,-0.00035860714577223374
0.8460000000000001,-0.00036486839714428433
0.8490000000000001,-0.00036233717632292616
0.8520000000000001,-0.00033230176237722706
0.8550000000000001,-0.00031483706025813203
0.8580000000000001,-0.00029843219357629606
0.8610000000000001,-0.0003392358114142357
0.8640000000000001,-0.0003664096290545272
0.8670000000000001,-0.00037343667747911273
0.87,-0.00037743525448974516
0.873,-0.0003668212866300134
0.876,-0.00035136909570153657
0.879,-0.00034738047373212395
0.882,-0.00030125152839997833
0.885,-0.0003389882961752188
0.888,-0.00035516254699831786
0.891,-0.00041085887835378874
0.894,-0.0004351616180665777
0.897,-0.00039977239779368347
0.9,-0.00033394048935176014
0.903,-0.0003257793154447561
0.906,-0.0003042161252199093
0.909,-0.00030108200472137714
0.912,-0.0003048094647282261
0.915,-0.00037040271063917124
0.918,-0.0004570844991192258
0.921,-0.00044352986231837205
0.924,-0.00030190302827862777
0.927,-2.913612838402892e-06
0.93,0.00020017228985365636
0.933,0.0003750731807448758
0.936,0.0006949510430138466
0.9390000000000001,0.0008770851500187132
0.9420000000000001,0.0007366210957442658
0.9450000000000001,0.0005041044250151019
0.9480000000000001,0.0003624541398607279
0.9510000000000001,0.0002239014608185823
0.9540000000000001,3.0620610873669646e-06
0.9570000000000001,-0.0001433677004778557
0.9600000000000001,-0.00011955637493652649
0.9630000000000001,-1.3955038537216445e-05
0.9660000000000001,1.1551311912006506e-05
0.9690000000000001,1.0943950706926593e-05
0.9720000000000001,-1.8707614571039352e-05
0.9750000000000001,-4.1237883410092174e-05
0.9780000000000001,-5.527262180506051e-05
0.9810000000000001,-0.00012411306020542143
0.9840000000000001,-0.00015135184042104955
0.9870000000000001,-0.00014698462876773952
0.9900000000000001,-0.00010559374406469427
0.9930000000000001,-9.283895664491581e-05
0.9960000000000001,-0.00011423654926832301
0.9990000000000001,-0.00017965626568619116
1.002,-0.0002227586709751571
1.0050000000000001,-0.0002714945419236327
1.008,-0.00032269513846827907
1.0110000000000001,-0.0003698981948540054
1.014,-0.00041017060092385556
1.0170000000000001,-0.000448584775876421
1.02,-0.00048126350605232245
1.0230000000000001,-0.0005625041657094128
1.026,-0.0006577865590524216
1.0290000000000001,-0.0007872402402921473
1.032,-0.0008680992153256486
1.0350000000000001,-0.0009361931907541597
1.038,-0.001020292502859522
1.0410000000000001,-0.001085249746126859
1.044,-0.0011386396801116
1.0470000000000002,-0.0011794760496888672
1.05,-0.0012203556625728683
1.0530000000000002,-0.0012792686873322363
1.056,-0.0013301084109627725
1.0590000000000002,-0.001343293264355365
1.062,-0.0013206363956280583
1.0650000000000002,-0.001306822581540303
1.068,-0.001291049870384275
1.071,-0.001275129666766415
1.074,-0.0012651226244896475
1.077,-0.001247172334314694
1.08,-0.0012649929860669214
1.083,-0.0012859931404509961
1.086,-0.0012516366580689207
1.089,-0.0012207775982094968
1.092,-0.0011689634941923854
1.095,-0.0011064191699227312
1.098,-0.0010415123586056682
1.101,-0.000983517429108671
1.104,-0.0009212417813727649
1.107,-0.0008559839894803162
1.11,-0.0008047726296910392
1.113,-0.000747711245587363
1.116,-0.0006792689422805459
1.119,-0.0006221242856978206
1.122,-0.0005432211247860096
1.125,-0.000528729854215226
1.1280000000000001,-0.0004995477757680565
1.131,-0.0004772646943131263
1.1340000000000001,-0.0004614548080979563
1.137,-0.0004536569452047372
1.1400000000000001,-0.00044796023619679445
1.143,-0.0004153590921607488
1.1460000000000001,-0.00039647798066479287
1.149,-0.0003755536117279874
1.1520000000000001,-0.0003631025545719836
1.155,-0.0003654911941625791
1.1580000000000001,-0.0003649140554115896
1.161,-0.0003703530301465893
1.1640000000000001,-0.0003812723589979545
1.167,-0.00036794596282672926
1.1700000000000002,-0.00037380406155117636
1.173,-0.00036449195900724356
1.1760000000000002,-0.00035445195479116755
1.179,-0.00033070518280517403
1.1820000000000002,-0.00032912315493268166
1.185,-0.00030238590081697615
1.1880000000000002,-0.0002960581268268047
1.191,-0.0002749828433835849
1.1940000000000002,-0.00024152256945980408
1.197,-0.00023487611593522986
1.2000000000000002,-0.00022102275382746218
1.203,-0.00023097339675458222
1.206,-0.00020184335462626387
1.209,-0.00020468021021941452
1.212,-0.00020496346791385283
1.215,-0.00019993843744838707
1.218,-0.00019098334530283378
1.221,-0.0001722188386920355
1.224,-0.00016267853886367862
1.227,-0.00017716449107264975
1.23,-0.00017107819779522702
1.233,-0.00017339385494259918
1.236,-0.00015938623745736757
1.239,-0.00016048202029036478
1.242,-0.00015881720482833198
1.245,-0.0001505533013103837
1.248,-0.00013492200108819292
1.2510000000000001,-0.0001227951645527871
1.254,-0.00013509736750618836
1.2570000000000001,-0.00014425976985528612
1.26,-0.00013308915411780126
1.2630000000000001,-0.0001225565127013878
1.266,-0.0001273954712495227
1.2690000000000001,-0.00012169089498146023
1.272,-0.00010599724431433343
1.2750000000000001,-0.00010542769953508422
1.278,-0.0001212390235656287
1.2810000000000001,-9.2460119330354e-05
1.284,-0.00011276572852978496
1.2870000000000001,-0.00012589508787429213
1.29,-0.00010465523093824142
1.2930000000000001,-7.960128558444316e-05
1.296,-9.079883975288268e-05
1.2990000000000002,-8.148474450375022e-05
1.302,-8.381317316137744e-05
1.3050000000000002,-8.06527919992765e-05
1.308,-7.279065346375854e-05
1.3110000000000002,-9.376670965058918e-05
1.314,-8.766190578262421e-05
1.3170000000000002,-7.182403979895667e-05
1.32,-5.407819837809458e-05
1.3230000000000002,-5.3318321324476745e-05
1.326,-4.1826282372640545e-05
1.3290000000000002,-5.5705685734792445e-05
1.332,-4.378896219814065e-05
1.3350000000000002,-5.576238577258542e-05
1.338,-4.3176250046644754e-05
1.341,-4.902481090658916e-05
1.344,-2.970448277900024e-05
1.347,-1.4674577206733489e-05
1.35,3.023890429861079e-06
1.353,-2.146327012885183e-06
1.356,-3.4308250892669205e-06
1.359,-5.03585318115721e-06
1.362,-6.631957068558866e-06
1.365,-1.1431729436986444e-05
1.368,9.714044751503722e-06
1.371,9.646210877336642e-06
1.374,8.379466420543083e-06
1.377,3.2127337625092806e-05
1.3800000000000001,2.1151969654239028e-05
1.383,1.1281137697055737e-05
1.3860000000000001,-3.4477606988503035e-06
1.389,-2.0875385765026824e-06
1.3920000000000001,-1.7110802873729255e-06
1.395,-4.295780659450075e-06
1.3980000000000001,1.578220823463174e-06
1.401,-5.536063020837908e-06
1.4040000000000001,-1.4301450810130124e-05
1.407,-2.439956928161523e-05
1.4100000000000001,-3.836385341160776e-05
1.413,-6.047131367518535e-05
1.4160000000000001,-7.548091922580247e-05
1.419,-7.305022260911277e-05
1.4220000000000002,-7.515175357623578e-05
1.425,-8.584058201627489e-05
1.4280000000000002,-9.238141147843991e-05
1.431,-0.0001138791420068767
1.4340000000000002,-0.00012244362774543907
1.437,-0.00014202436235914733
1.4400000000000002,-0.0001437575248865893
1.443,-0.00016154667870632496
1.4460000000000002,-0.00016007065461788264
1.449,-0.00015783084980963873
1.4520000000000002,-0.000162379270441274
1.455,-0.00017629639917710562
1.4580000000000002,-0.00020029733266929678
1.461,-0.00021884419272752748
1.4640000000000002,-0.00022338059447083537
1.467,-0.00021939975130451757
1.47,-0.00023907775919386947
1.473,-0.00022429086237086377
1.476,-0.00022742601080795544
1.479,-0.00022219313671368077
1.482,-0.00022874563695688663
1.485,-0.00025712246916347053
1.488,-0.00026785522891430635
1.491,-0.0002667654634852579
1.494,-0.0002630144039163131
1.497,-0.00026560864987618316
1.5,-0.00027481625893185506
1.5030000000000001,-0.0002566767900465246
1.506,-0.00027068078792081245
1.5090000000000001,-0.00027717806901080146
1.512,-0.00027994766494173726
1.5150000000000001,-0.0002998728958174463
1.518,-0.0002977740108705292
1.5210000000000001,-0.00028295033705374794
1.524,-0.00028147387041327663
1.5270000000000001,-0.00028950920402047903
1.53,-0.0002948634645584734
1.5330000000000001,-0.0003071246625672413
1.536,-0.0002986028183050629
1.5390000000000001,-0.0003182850147762283
1.542,-0.00031988765980154476
1.5450000000000002,-0.0003137971951100406
1.548,-0.0003034868880820896
1.5510000000000002,-0.000296833700032316
1.554,-0.00031127689662029925
1.5570000000000002,-0.00032252326172295376
1.56,-0.00033460528751686137
1.5630000000000002,-0.0003421184863154844
1.566,-0.00035185727078833215
1.5690000000000002,-0.00032728709078417185
1.572,-0.0003360163884805995
1.5750000000000002,-0.00031986081499402647
1.578,-0.0003199405544224684
1.5810000000000002,-0.0003166706295530005
1.584,-0.0003370102955251562
1.5870000000000002,-0.00037024153995203664
1.59,-0.00037297279650033976
1.5930000000000002,-0.00037462641813528337
1.596,-0.0003595155921719141
1.5990000000000002,-0.0003711895526094001
1.602,-0.00036141094109761563
1.605,-0.00036509034177135437
1.608,-0.00035551464471335987
1.611,-0.00037771747209389475
1.614,-0.0003923297859600668
1.617,-0.0003985138825304872
1.62,-0.00038172497670466247
1.623,-0.0003707779293171015
1.6260000000000001,-0.0003721439495939155
1.629,-0.0003787436691552278
1.6320000000000001,-0.0003826177783295218
1.635,-0.0003930631273806671
1.6380000000000001,-0.0003945334508283963
1.641,-0.0004100223847316822
1.6440000000000001,-0.0003989703416583204
1.647,-0.00040159995458044105
1.6500000000000001,-0.00037797568187570565
1.653,-0.0003726592206922624
1.6560000000000001,-0.00039639888484692686
1.659,-0.00043079493770958465
1.6620000000000001,-0.00042378353266970745
1.665,-0.0004396756961701015
1.6680000000000001,-0.00043299080493532354
1.671,-0.00043456900683450274
1.6740000000000002,-0.0004123817322327612
1.677,-0.00040413306644100384
1.6800000000000002,-0.00039201832467649814
1.683,-0.00041298716345708676
1.6860000000000002,-0.00043965850897245814
1.689,-0.0004526724132121127
1.6920000000000002,-0.0004511485573637954
1.695,-0.00043642849881542445
1.6980000000000002,-0.00042222852246259253
1.701,-0.00042529649478040727
1.7040000000000002,-0.0004238838147258653
1.707,-0.00042633300361302404
1.7100000000000002,-0.00043382863228260185
1.713,-0.0004765155384003042
1.7160000000000002,-0.00048494982186714133
1.719,-0.0004689104053629808
1.7220000000000002,-0.0004439939772150899
1.725,-0.0004065680269210906
1.7280000000000002,-0.0004149421173327921
1.731,-0.0004287568359829553
1.7340000000000002,-0.0004387902818540172
1.737,-0.0004404994002147183
1.74,-0.00046326347579202476
1.743,-0.0004967854003803265
1.746,-0.00046314301955793796
1.749,-0.0004255059673527583
1.752,-0.00039515773014591984
1.7550000000000001,-0.0004228816988639408
1.758,-0.0004370560659581461
1.7610000000000001,-0.0004588262513553038
1.764,-0.0004773945812551098
1.7670000000000001,-0.0004713952987625361
1.77,-0.00046156239447726444
1.7730000000000001,-0.00044318314242539536
1.776,-0.00040900967254931133
1.7790000000000001,-0.0003867978106285557
1.782,-0.00039959379033773065
1.7850000000000001,-0.0004581519490394819
1.788,-0.0005078535953462489
1.7910000000000001,-0.0005124031597503343
1.794,-0.00046842924236286873
1.7970000000000002,-0.0004008358366444773
1.8,-0.00036355772576326776
1.8030000000000002,-0.00035525119566766003
1.806,-0.00034183336480522877
1.8090000000000002,-0.000349770704326829
1.812,-0.0004524461615759668
1.8150000000000002,-0.0005576633663130877
1.818,-0.0005172591410440223
1.8210000000000002,-0.00029593795692526626
1.824,1.9725767733795e-05
1.8270000000000002,0.0002532308973057163
1.83,0.00046691447967047236
1.8330000000000002,0.0008140222726396327
1.836,0.0009534518304944322
1.8390000000000002,0.0007149179426474599
1.842,0.00044218391536266784
1.8450000000000002,0.0002723582149740371
1.848,9.931636679454866e-05
1.8510000000000002,-0.00011360333893349313
1.854,-0.0002433814955482451
1.8570000000000002,-0.00020112659730882869
1.86,-7.06294563406043e-05
1.8630000000000002,-2.444612076924738e-05
1.866,-5.8462639929727715e-05
1.8690000000000002,-0.00010726715918778522
1.872,-0.00010682430645665986
1.875,-0.00013468678124686068
1.8780000000000001,-0.00018204387911453438
1.881,-0.00021527903907990608
1.8840000000000001,-0.00021737427299236303
1.887,-0.00017425058028662567
1.8900000000000001,-0.00019142667476404698
1.893,-0.00022894947764776207
1.8960000000000001,-0.0003050325635344093
1.899,-0.00037010596775400776
1.9020000000000001,-0.0003997375882234198
1.905,-0.00043004525983356096
1.9080000000000001,-0.0004970956120351552
1.911,-0.0005699384213681509
1.9140000000000001,-0.0006383188835412828
1.917,-0.0007013160690573419
1.9200000000000002,-0.0008216099552288518
1.923,-0.000974565262850044
1.9260000000000002,-0.001083586467053582
1.929,-0.0011733818672893203
1.9320000000000002,-0.0012158490648019804
1.935,-0.0012916737916323275
1.9380000000000002,-0.0013550722647532793
1.941,-0.0013879721110140568
1.9440000000000002,-0.0014012126871376714
1.947,-0.001442705177319632
1.9500000000000002,-0.0014727095293131211
1.953,-0.0014786356278611882
1.9560000000000002,-0.0014662086924019434
1.959,-0.0014666457855670198
1.9620000000000002,-0.0014376370106224136
1.965,-0.0014279163817194076
1.9680000000000002,-0.0014215840602554936
1.971,-0.0014220112706401044
1.9740000000000002,-0.0013768348335006333
1.977,-0.0013113957993713106
1.9800000000000002,-0.0012734598467609164
1.983,-0.0012117631833776488
1.9860000000000002,-0.0011176853177901915
1.989,-0.001020915118057442
1.9920000000000002,-0.0009595091866469135
1.995,-0.0008929878903854245
1.9980000000000002,-0.0008305160202811536
2.0010000000000003,-0.0007627015010417886
2.004,-0.0006821440151429634
2.007,-0.0006373245474981517
2.0100000000000002,-0.0006016589381739949
2.013,-0.000570457262294525
2.016,-0.0005371992572428262
2.019,-0.0005250176566617798
2.0220000000000002,-0.000517185638359423
2.025,-0.0004948324014803053
2.028,-0.0004901544693486951
2.031,-0.0004478212451675092
2.0340000000000003,-0.0004171269255200128
2.037,-0.00043034999927734626
2.04,-0.0004251858458361147
2.043,-0.00042753624842670456
2.0460000000000003,-0.00042384701358988403
2.049,-0.0004220667159817359
2.052,-0.00039580951061796106
2.055,-0.0003719393834146287
2.0580000000000003,-0.00035383911155434004
2.061,-0.0003040513409395149
2.064,-0.00027180076590060996
2.067,-0.00028046150217633364
2.0700000000000003,-0.00026526982063782993
2.073,-0.0002394438455562025
2.076,-0.00021459816183904437
2.079,-0.00017283608788346745
2.0820000000000003,-0.00015793384418403213
2.085,-0.00013671474601098692
2.088,-0.00011051912091548345
2.091,-0.00010871650668481034
2.0940000000000003,-8.693729426271151e-05
2.097,-0.00011532059256337612
2.1,-0.00012087163694181643
2.103,-0.00010427455208284767
2.1060000000000003,-9.597131885954359e-05
2.109,-0.00011370464746018319
2.112,-0.00013915630489843582
2.115,-0.00017504156024415355
2.1180000000000003,-0.00015813728544759436
2.121,-0.00014462145369811605
2.124,-0.0001352825720148904
2.1270000000000002,-0.00012522249241578645
2.1300000000000003,-0.0001073725459686275
2.133,-7.552557299431411e-05
2.136,-8.720991846348503e-05
2.1390000000000002,-0.0001353322485277301
