Time,Modified_Signal
0.0,5.9855914372686385e-09
0.00025,1.7124637901116127e-09
0.0005,-2.209583169244741e-09
0.00075,-5.168805043123973e-09
0.001,-7.34691824533867e-09
0.00125,-9.417405209460125e-09
0.0015,-1.1766484189896616e-08
0.00175,-1.4147627354853393e-08
0.002,-1.58727409829892e-08
0.00225,-1.6242384173697507e-08
0.0025,-1.5093358479376834e-08
0.00275,-1.2895388343802898e-08
0.003,-1.0529657184789317e-08
0.00325,-8.762169902960358e-09
0.0035,-7.927900655223654e-09
0.00375,-7.798610184319657e-09
0.004,-7.863536232190555e-09
0.00425,-7.67741794853047e-09
0.0045,-7.0832853052873794e-09
0.00475,-6.195283205377437e-09
0.005,-5.241675047718101e-09
0.00525,-4.358213875445029e-09
0.0055,-3.536962455775879e-09
0.00575,-2.6950559745775005e-09
0.006,-1.7960749524528034e-09
0.00625,-9.053748762154177e-10
0.0065,-1.411511836461549e-10
0.00675,4.567768351224467e-10
0.007,9.875045760284622e-10
0.00725,1.645077600963831e-09
0.0075,2.5823017131487805e-09
0.00775,3.804902043976897e-09
0.008,5.091192093651109e-09
0.00825,6.196538698774499e-09
0.0085,6.979267936752841e-09
0.00875,7.474444556816747e-09
0.009,7.839835845436644e-09
0.00925,8.297712997242602e-09
0.0095,8.963661144172048e-09
0.00975,9.76576912326435e-09
0.01,1.053459828908685e-08
0.01025,1.1134409265225629e-08
0.0105,1.1523905881398615e-08
0.01075,1.175400279156678e-08
0.011,1.1886750973275008e-08
0.01125,1.1968206402512908e-08
0.0115,1.1938856604224116e-08
0.01175,1.1797559053618091e-08
0.012,1.1506840697585879e-08
0.01225,1.1150179766902113e-08
0.0125,1.0820728771704071e-08
0.01275,1.051675510292738e-08
0.013,1.0208547412331951e-08
0.01325,9.735411782710684e-09
0.0135,9.026373896476398e-09
0.01375,8.098773742949882e-09
0.014,7.052410776497666e-09
0.01425,6.057859551935638e-09
0.0145,5.21685037888965e-09
0.01475,4.491700632850973e-09
0.015,3.778704153382167e-09
0.01525,2.9893661859391766e-09
0.0155,2.048165172432818e-09
0.01575,1.0049753459318328e-09
0.016,-3.214874750936246e-11
0.01625,-1.0253691077256757e-09
0.0165,-1.9429258079007978e-09
0.01675,-2.7995136339819468e-09
0.017,-3.6294171747534505e-09
0.01725,-4.423389906645107e-09
0.0175,-5.1472082195100894e-09
0.01775,-5.7744627341804086e-09
0.018,-6.327406165235681e-09
0.01825,-6.865802019849726e-09
0.0185,-7.45034460774822e-09
0.01875,-8.08878345493e-09
0.019,-8.715681600670342e-09
0.01925,-9.228940795917909e-09
0.0195,-9.556538807920993e-09
0.01975,-9.703168723054217e-09
0.02,-9.75487398418063e-09
0.02025,-9.813290409836443e-09
0.0205,-9.944339057831747e-09
0.02075,-1.0127228085049452e-08
0.021,-1.0286045020339547e-08
0.02125,-1.0341973569101384e-08
0.0215,-1.025976316246367e-08
0.02175,-1.006602428350579e-08
0.022,-9.810238778113474e-09
0.02225,-9.526625709412185e-09
0.0225,-9.218161671049112e-09
0.02275,-8.868330020079728e-09
0.023,-8.470980228992542e-09
0.02325,-8.047060803373294e-09
0.0235,-7.627835655105324e-09
0.02375,-7.221473064633791e-09
0.024,-6.798548840114016e-09
0.02425,-6.292719208428789e-09
0.0245,-5.654476067994249e-09
0.02475,-4.886198070675034e-09
0.025,-4.056537357262677e-09
0.02525,-3.2496714348222938e-09
0.0255,-2.525062929097713e-09
0.02575,-1.8674029520009976e-09
0.026,-1.2052556369404802e-09
0.02625,-4.5219324247386547e-10
0.0265,4.2779825353822177e-10
0.02675,1.4165615761287657e-09
0.027,2.4451614515868115e-09
0.02725,3.447359077730074e-09
0.0275,4.381007123851143e-09
0.02775,5.241650941742282e-09
0.028,6.033186621106878e-09
0.02825,6.782234116511786e-09
0.0285,7.465654915036274e-09
0.02875,8.051018629673455e-09
0.029,8.564055495001995e-09
0.02925,8.99475447289748e-09
0.0295,9.377402591123045e-09
0.02975,9.698647681789242e-09
0.03,9.884106499914329e-09
0.03025,9.878450676142462e-09
0.0305,9.668689723905132e-09
0.03075,9.260241067423822e-09
0.031,8.769529763598052e-09
0.03125,8.295691544275126e-09
0.0315,7.875607251049573e-09
0.03175,7.518604158824073e-09
0.032,7.147015383002244e-09
0.03225,6.681762170806562e-09
0.0325,6.0936339805487054e-09
0.03275,5.405620255702956e-09
0.033,4.674421467298078e-09
0.03325,3.961655464145508e-09
0.0335,3.2968261282628897e-09
0.03375,2.6772678986853577e-09
0.034,2.0711117048069844e-09
0.03425,1.427455974149845e-09
0.0345,6.678667927160697e-10
0.03475,-2.89211572490387e-10
0.035,-1.4662223624588081e-09
0.03525,-2.78844637953423e-09
0.0355,-4.076262379211435e-09
0.03575,-4.9900840953952285e-09
0.036,-5.243491485486971e-09
0.03625,-4.52008656653822e-09
0.0365,-2.6863497740735414e-09
0.03675,1.0958840520354893e-10
0.037,3.4531348311681973e-09
0.03725,6.824934912428853e-09
0.0375,9.582817052581283e-09
0.03775,1.1141183985859648e-08
0.038,1.1186076420002583e-08
0.03825,9.377868769182082e-09
0.0385,6.0801327935535886e-09
0.03875,1.8499239847703557e-09
0.039,-2.7418088726385587e-09
0.03925,-7.125025430285515e-09
0.0395,-1.0798423238767521e-08
0.03975,-1.3417443024966322e-08
0.04,-1.4773438347306016e-08
0.04025,-1.496837329619875e-08
0.0405,-1.4392039021372067e-08
0.04075,-1.3446692854365141e-08
0.041,-1.246961455514857e-08
0.04125,-1.162703958627136e-08
0.0415,-1.1008271480180015e-08
0.04175,-1.0563180349065156e-08
0.042,-1.0179801126683876e-08
0.04225,-9.7733232057636e-09
0.0425,-9.333653598825063e-09
0.04275,-8.855284304629141e-09
0.043,-8.33476247031359e-09
0.04325,-7.754701005278706e-09
0.0435,-7.123763730819013e-09
0.04375,-6.468811031970275e-09
0.044,-5.8263117682675076e-09
0.04425,-5.19814780116727e-09
0.0445,-4.558471954293139e-09
0.04475,-3.837580453044494e-09
0.045,-2.9942894136706157e-09
0.04525,-2.0129625174634938e-09
0.0455,-9.51056087504496e-10
0.04575,9.597386702964495e-11
0.046,1.0537798997065031e-09
0.04625,1.9242965786548353e-09
0.0465,2.7768995911015575e-09
0.04675,3.641961811793186e-09
0.047,4.593110047716871e-09
0.04725,5.59803223907729e-09
0.0475,6.591858344229637e-09
0.04775,7.52239072482061e-09
0.048,8.374427818741496e-09
0.04825,9.143611764417578e-09
0.0485,9.854661543799393e-09
0.04875,1.0508395547210353e-08
0.049,1.106637826711686e-08
0.04925,1.1543725746426583e-08
0.0495,1.1904842094860299e-08
0.04975,1.2191604361196975e-08
0.05,1.2439667162280322e-08
0.05025,1.2638579411576617e-08
0.0505,1.277583737356392e-08
0.05075,1.2788230121512467e-08
0.051,1.2643055685898348e-08
0.05125,1.2309467002553342e-08
0.0515,1.1874298942833982e-08
0.05175,1.1406030032559519e-08
0.052,1.0938971070953204e-08
0.05225,1.0471357723141349e-08
0.0525,9.967175703454487e-09
0.05275,9.360496442079429e-09
0.053,8.638359381106642e-09
0.05325,7.81746488417781e-09
0.0535,6.9686406756626075e-09
0.05375,6.095409881150928e-09
0.054,5.249332616017903e-09
0.05425,4.371673116849952e-09
0.0545,3.4747195351186556e-09
0.05475,2.576952722974904e-09
0.055,1.6843125484632669e-09
0.05525,8.53358951565271e-10
0.0555,4.7393550721754936e-11
0.05575,-7.47574936700579e-10
0.056,-1.5887337143133562e-09
0.05625,-2.4697818988061326e-09
0.0565,-3.3647124134086395e-09
0.05675,-4.200102023991032e-09
0.057,-4.933564532367704e-09
0.05725,-5.5577066831469056e-09
0.0575,-6.1217056276529595e-09
0.05775,-6.683100563956983e-09
0.058,-7.2799135807254405e-09
0.05825,-7.89383307218468e-09
0.0585,-8.48071646875199e-09
0.05875,-8.989169688647272e-09
0.059,-9.408967815791311e-09
0.05925,-9.754849156997428e-09
0.0595,-1.006278570631844e-08
0.05975,-1.034534958672298e-08
0.06,-1.0586676385814488e-08
0.06025,-1.0757948938315548e-08
0.0605,-1.0854091773503686e-08
0.06075,-1.088952832810328e-08
0.061,-1.0907343591480976e-08
0.06125,-1.0927921175515924e-08
0.0615,-1.0937139590897361e-08
0.06175,-1.088149407385715e-08
0.062,-1.0708981951353086e-08
0.06225,-1.040239082926043e-08
0.0625,-9.997983123980946e-09
0.06275,-9.561184989471877e-09
0.063,-9.142040142221995e-09
0.06325,-8.738571801639143e-09
0.0635,-8.306039856474942e-09
0.06375,-7.783146559612077e-09
0.064,-7.140388994911829e-09
0.06425,-6.387334516157785e-09
0.0645,-5.565984595346254e-09
0.06475,-4.70966341141457e-09
0.065,-3.833743599427488e-09
0.06525,-2.9164864205646375e-09
0.0655,-1.9339166707119975e-09
0.06575,-9.081986589581324e-10
0.066,1.0891768784975666e-10
0.06625,1.0788610259137852e-09
0.0665,1.983832144974243e-09
0.06675,2.825617194346306e-09
0.067,3.679518630675089e-09
0.06725,4.547946717582738e-09
0.0675,5.396534145436793e-09
0.06775,6.14132043153701e-09
0.068,6.718133435399281e-09
0.06825,7.0925442949009896e-09
0.0685,7.301392878842994e-09
0.06875,7.410749716609957e-09
0.069,7.48768519940194e-09
0.06925,7.566103488738647e-09
0.0695,7.600094217803392e-09
0.06975,7.580067767038852e-09
0.07,7.473035827381773e-09
0.07025,7.2897086408300015e-09
0.0705,7.0577622842244396e-09
0.07075,6.819274092867518e-09
0.071,6.546959960407044e-09
0.07125,6.220381523397853e-09
0.0715,5.8269282541308135e-09
0.07175,5.409450461426554e-09
0.072,5.0188980512384655e-09
0.07225,4.686834782391561e-09
0.0725,4.367957942865064e-09
0.07275,3.9706483970399615e-09
0.073,3.352418009262915e-09
0.07325,2.431980770142739e-09
0.0735,1.1952518366650643e-09
0.07375,-1.3578298151048857e-10
0.074,-1.2215125610219555e-09
0.07425,-1.7285961460853254e-09
0.0745,-1.490881506129267e-09
0.07475,-4.150352905407049e-10
0.075,1.4754776102670735e-09
0.07525,4.20001457386955e-09
0.0755,7.398937067650062e-09
0.07575,1.0490231972086634e-08
0.076,1.301158798492892e-08
0.07625,1.4479733122087065e-08
0.0765,1.4353096841372537e-08
0.07675,1.234492739645815e-08
0.077,8.732291296040005e-09
0.07725,4.2879761982157226e-09
0.0775,-4.196365785700315e-10
0.07775,-4.930531934202176e-09
0.078,-8.781469025667861e-09
0.07825,-1.1617190916758905e-08
0.0785,-1.3292437531263173e-08
0.07875,-1.3867498361177862e-08
0.079,-1.3548654000111368e-08
0.07925,-1.2668529588428363e-08
0.0795,-1.1680318590149298e-08
0.07975,-1.0992104886134473e-08
0.08,-1.070125033640528e-08
0.08025,-1.0705727284759597e-08
0.0805,-1.0801567173120755e-08
0.08075,-1.0806273520288938e-08
0.081,-1.0610937245795013e-08
0.08125,-1.0237829735587134e-08
0.0815,-9.79397597774294e-09
0.08175,-9.375569998255785e-09
0.082,-9.009150819996446e-09
0.08225,-8.6669521109134e-09
0.0825,-8.299857076461877e-09
0.08275,-7.884954620014579e-09
0.083,-7.422047506633219e-09
0.08325,-6.909996976877822e-09
0.0835,-6.2888461174126696e-09
0.08375,-5.516204418616035e-09
0.084,-4.564214199336418e-09
0.08425,-3.4779275530108446e-09
0.0845,-2.378862859216252e-09
0.08475,-1.4019616836169519e-09
0.085,-6.286686034145607e-10
0.08525,1.46108972715066e-11
0.0855,6.782160397672627e-10
0.08575,1.5244663527635094e-09
0.086,2.607289589027938e-09
0.08625,3.861657292295749e-09
0.0865,5.093267035357484e-09
0.08675,6.143788416720614e-09
0.087,6.9694536589723595e-09
0.08725,7.59284359980358e-09
0.0875,8.135229282433043e-09
0.08775,8.693542362160318e-09
0.088,9.288380361549635e-09
0.08825,9.832982721376566e-09
0.0885,1.0320153594221383e-08
0.08875,1.07460267722107e-08
0.089,1.1150935116759188e-08
0.08925,1.1543997144351886e-08
0.0895,1.1855500049379372e-08
0.08975,1.1953821036217274e-08
0.09,1.1738530712179271e-08
0.09025,1.1262104093219439e-08
0.0905,1.068486897949805e-08
0.09075,1.0220256174918094e-08
0.091,1.0040585557125923e-08
0.09125,1.005219668354373e-08
0.0915,1.0053460607052549e-08
0.09175,9.783447598184608e-09
0.092,9.113212243325906e-09
0.09225,8.129540984479572e-09
0.0925,7.067135923989797e-09
0.09275,6.184285388267158e-09
0.093,5.530459538190203e-09
0.09325,5.02323429653833e-09
0.0935,4.507245811202955e-09
0.09375,3.902514711688929e-09
0.094,3.230222531340124e-09
0.09425,2.59266445005101e-09
0.0945,1.9977888988669694e-09
0.09475,1.3281949291824467e-09
0.095,4.225732114342225e-10
0.09525,-7.812000459390255e-10
0.0955,-2.085909469851199e-09
0.09575,-3.1163888874744754e-09
0.096,-3.5252071164615063e-09
0.09625,-3.302856191218779e-09
0.0965,-2.8576764877816868e-09
0.09675,-2.856019730457318e-09
0.097,-3.778605249353544e-09
0.09725,-5.589950002154114e-09
0.0975,-7.638778987448478e-09
0.09775,-9.02982470976908e-09
0.098,-9.13785355071546e-09
0.09825,-8.075984768417363e-09
0.0985,-6.636678744089176e-09
0.09875,-5.9104669657068715e-09
0.099,-6.546120394845416e-09
0.09925,-8.424043732091096e-09
