Time,Modified_Signal
0.0,2.660521567690663e-06
0.00025,1.2000247540224552e-06
0.0005,-4.1902432954357607e-07
0.00075,-1.916921544317963e-06
0.001,-3.177936572485727e-06
0.00125,-4.24259894032348e-06
0.0015,-5.1312526748694424e-06
0.00175,-5.7816319234699836e-06
0.002,-6.098593547746857e-06
0.00225,-6.016402727578178e-06
0.0025,-5.592467081520241e-06
0.00275,-4.9799791737111395e-06
0.003,-4.367971654522308e-06
0.00325,-3.8722269872478864e-06
0.0035,-3.519342430817134e-06
0.00375,-3.2486970563077997e-06
0.004,-2.9959456860456524e-06
0.00425,-2.7434388741440893e-06
0.0045,-2.516918613829939e-06
0.00475,-2.3361589908097265e-06
0.005,-2.1789890239805443e-06
0.00525,-1.9721755682305194e-06
0.0055,-1.6437818940351879e-06
0.00575,-1.181403012726639e-06
0.006,-6.571049845977904e-07
0.00625,-1.922446637625412e-07
0.0065,1.1591791462164219e-07
0.00675,2.670262604817873e-07
0.007,3.624439567708148e-07
0.00725,5.458892235157366e-07
0.0075,9.1214669412303e-07
0.00775,1.4526382960335322e-06
0.008,2.0382498328663946e-06
0.00825,2.5290689655435178e-06
0.0085,2.847795985590361e-06
0.00875,3.0153901571429387e-06
0.009,3.119091882345855e-06
0.00925,3.2717751534250015e-06
0.0095,3.53079366403108e-06
0.00975,3.863413910130702e-06
0.01,4.1893599112837374e-06
0.01025,4.442588911470586e-06
0.0105,4.601615059463123e-06
0.01075,4.68890962543419e-06
0.011,4.734761891903939e-06
0.01125,4.762077936306024e-06
0.0115,4.7485781261666e-06
0.01175,4.692636930512581e-06
0.012,4.577554688881736e-06
0.01225,4.4357170572272285e-06
0.0125,4.30456350854652e-06
0.01275,4.184194714657064e-06
0.013,4.0630762867064075e-06
0.01325,3.876696001018032e-06
0.0135,3.595769369195843e-06
0.01375,3.2263904740175506e-06
0.014,2.808248164406776e-06
0.01425,2.4100399395813517e-06
0.0145,2.073478691900471e-06
0.01475,1.7845385730500267e-06
0.015,1.5021104384004363e-06
0.01525,1.1902027157027274e-06
0.0155,8.174524574128992e-07
0.01575,4.026229485173984e-07
0.016,-1.1466933156690227e-08
0.01625,-4.0888116934822504e-07
0.0165,-7.755611591510949e-07
0.01675,-1.1163216402352204e-06
0.017,-1.4448868864882275e-06
0.01725,-1.7587689892711937e-06
0.0175,-2.0458659192395777e-06
0.01775,-2.296447698148287e-06
0.018,-2.518822217106388e-06
0.01825,-2.7352325908908706e-06
0.0185,-2.968358931476468e-06
0.01875,-3.220917423019538e-06
0.019,-3.467871754118311e-06
0.01925,-3.670260969958751e-06
0.0195,-3.8005881001936014e-06
0.01975,-3.8606011936987915e-06
0.02,-3.883305853178886e-06
0.02025,-3.907752967270241e-06
0.0205,-3.959623881525354e-06
0.02075,-4.0312288125401355e-06
0.021,-4.093482123267468e-06
0.02125,-4.115710787356645e-06
0.0215,-4.083600896289525e-06
0.02175,-4.006797039307088e-06
0.022,-3.904294599987877e-06
0.02225,-3.789993996842535e-06
0.0225,-3.6662479557082213e-06
0.02275,-3.527634080114701e-06
0.023,-3.3718142057636402e-06
0.02325,-3.205887026413621e-06
0.0235,-3.0404402343996367e-06
0.02375,-2.8775470476345315e-06
0.024,-2.7059118379492e-06
0.02425,-2.5009744359908862e-06
0.0245,-2.2451397382000652e-06
0.02475,-1.9403713573496034e-06
0.025,-1.613314783572129e-06
0.02525,-1.2956371815088733e-06
0.0255,-1.0092495640579642e-06
0.02575,-7.474116405302678e-07
0.026,-4.822841546872909e-07
0.02625,-1.8057480965233995e-07
0.0265,1.7133020784775935e-07
0.02675,5.661932878833767e-07
0.027,9.768168172312934e-07
0.02725,1.376589596017144e-06
0.0275,1.7477761863446169e-06
0.02775,2.087603735550984e-06
0.028,2.3977504354122095e-06
0.02825,2.690754482638959e-06
0.0285,2.9605661630875877e-06
0.02875,3.1968143186639503e-06
0.029,3.4096159492128946e-06
0.02925,3.591412454697196e-06
0.0295,3.750155771925951e-06
0.02975,3.875769917399073e-06
0.03,3.937979463481488e-06
0.03025,3.919473648147105e-06
0.0305,3.823451812509174e-06
0.03075,3.659876123992691e-06
0.031,3.4776876484032583e-06
0.03125,3.3113436815919256e-06
0.0315,3.16451628240368e-06
0.03175,3.0292117585653786e-06
0.032,2.8686717082505647e-06
0.03225,2.6556723536398625e-06
0.0325,2.392045939939897e-06
0.03275,2.103298959682959e-06
0.033,1.8223238006439981e-06
0.03325,1.5711704903916549e-06
0.0335,1.3459765275451902e-06
0.03375,1.1241972010122628e-06
0.034,8.77447213836976e-07
0.03425,5.853462817591911e-07
0.0345,2.3401941663580244e-07
0.03475,-1.8234180669618704e-07
0.035,-6.512563800319676e-07
0.03525,-1.1398013502197935e-06
0.0355,-1.5950474230527877e-06
0.03575,-1.913145533743271e-06
0.036,-2.0068708916598202e-06
0.03625,-1.7565951647396608e-06
0.0365,-1.090033575162627e-06
0.03675,-3.127503695627571e-08
0.037,1.2857472995500388e-06
0.03725,2.6633936910024613e-06
0.0375,3.827098459888018e-06
0.03775,4.506973047828919e-06
0.038,4.544309137306031e-06
0.03825,3.792761437092195e-06
0.0385,2.4150221487752868e-06
0.03875,6.696286300695574e-07
0.039,-1.1817238277839205e-06
0.03925,-2.8996996217655684e-06
0.0395,-4.30093805456912e-06
0.03975,-5.283110171826152e-06
0.04,-5.796309212582641e-06
0.04025,-5.8940081155456134e-06
0.0405,-5.717775063101587e-06
0.04075,-5.3967596004135085e-06
0.041,-5.03517909803985e-06
0.04125,-4.686633538406228e-06
0.0415,-4.39709164986226e-06
0.04175,-4.172323641189602e-06
0.042,-3.993357543251835e-06
0.04225,-3.838078459448552e-06
0.0425,-3.6954331557208965e-06
0.04275,-3.54345342836241e-06
0.043,-3.3603018721299754e-06
0.04325,-3.128738317050667e-06
0.0435,-2.85598099502826e-06
0.04375,-2.566555758707238e-06
0.044,-2.2902582284415193e-06
0.04425,-2.0366189177660803e-06
0.0445,-1.7943536270456887e-06
0.04475,-1.5271541084431447e-06
0.045,-1.208033543155503e-06
0.04525,-8.236076907976083e-07
0.0455,-3.9575711951470997e-07
0.04575,3.306858101724546e-08
0.046,4.26495391608507e-07
0.04625,7.797448851248679e-07
0.0465,1.1184047161464716e-06
0.04675,1.4563097312602684e-06
0.047,1.8267692184651642e-06
0.04725,2.2209207577423054e-06
0.0475,2.615074853961282e-06
0.04775,2.988067143447033e-06
0.048,3.331632745258591e-06
0.04825,3.641490047673741e-06
0.0485,3.925988849586843e-06
0.04875,4.185563250213278e-06
0.049,4.406122596645928e-06
0.04925,4.594920621411057e-06
0.0495,4.73820793312798e-06
0.04975,4.8521782961076765e-06
0.05,4.950322133780434e-06
0.05025,5.0283569461123186e-06
0.0505,5.082018946278257e-06
0.05075,5.087171138799214e-06
0.051,5.031216856470493e-06
0.05125,4.901147115753186e-06
0.0515,4.7299579877406174e-06
0.05175,4.543537170265781e-06
0.052,4.355380377396857e-06
0.05225,4.166051315476493e-06
0.0525,3.9631231963967385e-06
0.05275,3.7216449451101528e-06
0.053,3.436290608700145e-06
0.05325,3.1122641509421166e-06
0.0535,2.7760862887861887e-06
0.05375,2.428398670143597e-06
0.054,2.0902673157117815e-06
0.05425,1.7395857507173717e-06
0.0545,1.3821877256349748e-06
0.05475,1.025361582122187e-06
0.055,6.705950122486506e-07
0.05525,3.3958691373808705e-07
0.0555,1.777738737664422e-08
0.05575,-2.9946622294014916e-07
0.056,-6.33861399468181e-07
0.05625,-9.827168234688197e-07
0.0565,-1.3366930301261594e-06
0.05675,-1.6681392201475361e-06
0.057,-1.9611466708999147e-06
0.05725,-2.2123089645271216e-06
0.0575,-2.4395152846732045e-06
0.05775,-2.6638917125130394e-06
0.058,-2.8999491712621784e-06
0.05825,-3.1413739334726193e-06
0.0585,-3.3724804522628904e-06
0.05875,-3.5742953018799398e-06
0.059,-3.7428543920338884e-06
0.05925,-3.8828022526312475e-06
0.0595,-4.0068872251295844e-06
0.05975,-4.119329975062704e-06
0.06,-4.214257687223419e-06
0.06025,-4.281342131324064e-06
0.0605,-4.3194036745611704e-06
0.06075,-4.334074699212889e-06
0.061,-4.3416511097498595e-06
0.06125,-4.349491806292284e-06
0.0615,-4.352063775304807e-06
0.06175,-4.329000101372606e-06
0.062,-4.26060680908164e-06
0.06225,-4.140204238792993e-06
0.0625,-3.981278250814283e-06
0.06275,-3.808421861241667e-06
0.063,-3.6406829910204588e-06
0.06325,-3.477691775647829e-06
0.0635,-3.303124037373297e-06
0.06375,-3.0941264212591757e-06
0.064,-2.8395124032441215e-06
0.06425,-2.542323608546321e-06
0.0645,-2.217766623129696e-06
0.06475,-1.8778589529553683e-06
0.065,-1.5284284288883248e-06
0.06525,-1.161442283858206e-06
0.0655,-7.6830412517981e-07
0.06575,-3.5855678762330417e-07
0.066,4.682089431824376e-08
0.06625,4.3222412156187444e-07
0.0665,7.903740096234547e-07
0.06675,1.1222039827119524e-06
0.067,1.4588277397389709e-06
0.06725,1.8032174547762504e-06
0.0675,2.1435219908636884e-06
0.06775,2.4463277476178882e-06
0.068,2.683293620069254e-06
0.06825,2.8359966459390424e-06
0.0685,2.9152560815429122e-06
0.06875,2.9475678147888764e-06
0.069,2.9650446454099564e-06
0.06925,2.989498324087834e-06
0.0695,3.008810393748661e-06
0.06975,3.0183412784813163e-06
0.07,2.99610680229541e-06
0.07025,2.9337437204201446e-06
0.0705,2.8335539931065027e-06
0.07075,2.713964195354296e-06
0.071,2.57687603167836e-06
0.07125,2.431509672959986e-06
0.0715,2.2843566344728016e-06
0.07175,2.1500283922636617e-06
0.072,2.03216537222363e-06
0.07225,1.9211988308556766e-06
0.0725,1.7845603298583847e-06
0.07275,1.5885184621137559e-06
0.073,1.2962930866196572e-06
0.07325,9.020700217650587e-07
0.0735,4.17983083461913e-07
0.07375,-6.98514107516422e-08
0.074,-4.4840923377180996e-07
0.07425,-6.151789018166948e-07
0.0745,-5.249971670488833e-07
0.07475,-1.399158295493996e-07
0.075,5.53663086857013e-07
0.07525,1.5960714783570826e-06
0.0755,2.868122645853407e-06
0.07575,4.139645947485403e-06
0.076,5.204421350488238e-06
0.07625,5.836427065390575e-06
0.0765,5.793789330656396e-06
0.07675,4.958132912353248e-06
0.077,3.459875536720767e-06
0.07725,1.6397704423422222e-06
0.0775,-2.4826224869986656e-07
0.07775,-2.014110765932982e-06
0.078,-3.4904844292325042e-06
0.07825,-4.5671615990509975e-06
0.0785,-5.214065319017118e-06
0.07875,-5.464444492655418e-06
0.079,-5.3868872822001135e-06
0.07925,-5.0859436831354525e-06
0.0795,-4.715737603563391e-06
0.07975,-4.428200756946504e-06
0.08,-4.272024138031942e-06
0.08025,-4.2301174235012476e-06
0.0805,-4.244600719348888e-06
0.08075,-4.253348196964513e-06
0.081,-4.2062460585614e-06
0.08125,-4.093496949450752e-06
0.0815,-3.938469945559158e-06
0.08175,-3.770046243463396e-06
0.082,-3.6030121596673114e-06
0.08225,-3.440076216168094e-06
0.0825,-3.2762761861124734e-06
0.08275,-3.1100254880841057e-06
0.083,-2.9388888579555096e-06
0.08325,-2.753135461717512e-06
0.0835,-2.518860980958355e-06
0.08375,-2.213789784886662e-06
0.084,-1.8279157115972836e-06
0.08425,-1.3847576400486948e-06
0.0845,-9.388702006597222e-07
0.08475,-5.474579570729525e-07
0.085,-2.4266020579626664e-07
0.08525,7.725388289756499e-09
0.0855,2.6690977873979724e-07
0.08575,6.01536676629689e-07
0.086,1.0331665477535377e-06
0.08625,1.5346366948564886e-06
0.0865,2.027085294839206e-06
0.08675,2.446665774191795e-06
0.087,2.7760722206812237e-06
0.08725,3.0248287553025763e-06
0.0875,3.24129197959381e-06
0.08775,3.463193325580619e-06
0.088,3.697429905640056e-06
0.08825,3.909119123616975e-06
0.0885,4.097356556781769e-06
0.08875,4.264784397464228e-06
0.089,4.431529572747476e-06
0.08925,4.6015106035464315e-06
0.0895,4.741034951705426e-06
0.08975,4.787080104019498e-06
0.09,4.690516852762745e-06
0.09025,4.472351464589495e-06
0.0905,4.209642814288538e-06
0.09075,4.008993655453755e-06
0.091,3.9562045547154054e-06
0.09125,4.012699035987352e-06
0.0915,4.073246423282124e-06
0.09175,3.995698069145876e-06
0.092,3.700077362245795e-06
0.09225,3.224462778298484e-06
0.0925,2.7039704396452785e-06
0.09275,2.302286541381929e-06
0.093,2.082537050775578e-06
0.09325,2.004976093268101e-06
0.0935,1.9445868206578736e-06
0.09375,1.7807539575608376e-06
0.094,1.4609490479057294e-06
0.09425,1.0372907290124393e-06
0.0945,6.012396827013059e-07
0.09475,2.2638075067930027e-07
0.095,-7.144081184444215e-08
0.09525,-3.3357199390835503e-07
0.0955,-5.966407165676711e-07
0.09575,-8.642197627336267e-07
0.096,-1.0970854922033202e-06
0.09625,-1.2693305495969988e-06
0.0965,-1.4023350532896157e-06
0.09675,-1.5779453835807088e-06
0.097,-1.8714087023290736e-06
0.09725,-2.2959545690428226e-06
0.0975,-2.7560035863686042e-06
0.09775,-3.103696397021104e-06
0.098,-3.2194390860672813e-06
0.09825,-3.116509187499168e-06
0.0985,-2.9302430009868866e-06
0.09875,-2.869364109271815e-06
0.099,-3.0550588427462112e-06
0.09925,-3.4745430258978673e-06
