Amplitude
-0.6172132590402778
-0.6724862432276929
-0.723533323116855
-0.7590445588219882
-0.7780854704610253
-0.801082709091329
-0.8338155255881414
-0.86497452662247
-0.8801989169958157
-0.9017469429996228
-0.9402810747813294
-0.9872390903556768
-1.0218527029966609
-1.0367807750272553
-1.0420763734134701
-1.0566423818308797
-1.084734411946308
-1.117486601332448
-1.1432869687411669
-1.159373397827585
-1.1849554064713792
-1.2172715277464294
-1.2288429067407565
-1.2495605865164283
-1.2971096873506376
-1.3119709430880582
-1.3133560181539619
-1.31589961406922
-1.3375935653368076
-1.3717123906667006
-1.3901700309929188
-1.3886831175768035
-1.3937895953339272
-1.4091410718381108
-1.424657540149216
-1.434226501701351
-1.4341771880546885
-1.4333507542539414
-1.4369269564512979
-1.4488654157103562
-1.4563426092731178
-1.4553850775360124
-1.4533106868274213
-1.4714750489887776
-1.503159838676141
-1.5236429839652845
-1.5225453289745177
-1.4907088798837491
-1.4613930243370958
-1.455041089193716
-1.4621915423913532
-1.47429886790985
-1.4791562102618772
-1.4779841766687138
-1.465290465823751
-1.4593855841516032
-1.4627124158112734
-1.4566585509282788
-1.4351235722382731
-1.4057396828089752
-1.3889562332780245
-1.390575576132312
-1.3990066492265625
-1.3959454737725343
-1.3713278521220587
-1.350488351399815
-1.3493021979495912
-1.3427540862581167
-1.324748977122463
-1.300178006821529
-1.2666090526105471
-1.2271033277492154
-1.2018113475380194
-1.1968468931595162
-1.182010532681945
-1.1414457019761386
-1.1075111417056116
-1.0811348719634586
-1.058057699678958
-1.0410394965169936
-1.0084280031504949
-0.9690871083405662
-0.9346275384425953
-0.9166604333902368
-0.9023847643061184
-0.8728967526488447
-0.8318746323745857
-0.7955084530153423
-0.7720545391837808
-0.7658025222893587
-0.7505266564057228
-0.718921265719336
-0.6703944462412245
-0.6302929543510436
-0.6065698781544856
-0.5879536818372433
-0.5524925931195792
-0.508750806204378
-0.45735866684425275
-0.4090169310847566
-0.3753420369674615
-0.3600165332372549
-0.3386486931386058
-0.2886779016541829
-0.23301211464006139
-0.19669552840942328
-0.18005473563754754
-0.1443563245716669
-0.08840131063191646
-0.03387757832087383
0.004545534719462163
0.04485045351241698
0.09189780709632149
0.13925738622285325
0.1780577156535907
0.19759638324694412
0.19632571233646498
0.22304899252527055
0.2743876900024435
0.33933440697675143
0.40505088225211755
0.4617505202699379
0.4959849481496254
0.5245164743815561
0.558919873024984
0.606803026509852
0.6391551240109039
0.6733494217919724
0.7111963543413469
0.7642715919548068
0.8246209672462931
0.8861214893739718
0.9334956995574718
0.970996456677369
1.0108109780923775
1.0614648802483695
1.1092076044835504
1.1558519164553613
1.1928355597418003
1.2244132113046293
1.2527037922085755
1.2746389071617286
1.3286519002051413
1.4034358756436687
1.4623562807927495
1.4916657465973402
1.5001989401592417
1.5163210025563452
1.5473416561705822
1.5813461563733529
1.6061150436197331
1.634147038332032
1.6703123901326256
1.717650871228595
1.7636397114714224
1.7878225339824088
1.7819497338172756
1.783545771133662
1.7968734734564076
1.8194827135308413
1.8467877715798822
1.8687106111350564
1.8892109411882358
1.9076716334747377
1.9314101692830312
1.9451629268970803
1.9351925995691717
1.925601899347119
1.9417147002490682
1.974067495365827
1.9994652417385221
2.0087506622823894
2.0074145604482774
2.010102991382105
2.0165098461899573
2.034873952148091
2.0374261267599754
2.0284392219760012
2.0304960502472595
2.031086879934976
2.0326552062120404
2.040086304630914
2.0390410696499397
2.015180911695111
1.9767493825811489
1.9670836144349486
1.9645227677315797
1.9641901439251452
1.9660920508698934
1.940635038369756
1.9101028526564314
1.8751135553311975
1.8613085614300615
1.8390963003108833
1.8005518115446495
1.7719281806085494
1.7514044710859116
1.7286157743749027
1.706014202058231
1.6768975618628974
1.645244563723644
1.6110672669741006
1.5731574851826875
1.5333589765328284
1.499008691040543
1.4624912308584097
1.4320597125668295
1.4058973982602965
1.3803569279063248
1.3539273513382388
1.3223516025519524
1.2777110168653167
1.2239883343427282
1.1709645450025647
1.1284208910443325
1.1088852693153795
1.1019990181587143
1.0742117480962479
1.025235403418616
0.9682090347035889
0.9156615572195436
0.8636435663254839
0.8106470685897493
0.7765252128606894
0.7445124180034993
0.704861833535268
0.6685773989599866
0.6426961014471727
0.5997722475489915
0.5471481249192593
0.49460733112673094
0.45498507533978666
0.4176194931728648
0.38100344983381085
0.34515559874667534
0.31680804079202207
0.28224732509555583
0.24179719540226807
0.19150914856936724
0.13323260866567085
0.0871263584317244
0.05442935444432235
0.02508964433386425
-0.013996401547748376
-0.060064357854627805
-0.11523244209115319
-0.17399008229656132
-0.2183154134575612
-0.2521580468587284
-0.29350499457273854
-0.33501540669698465
-0.3553113962762718
-0.3687186656674595
-0.3874270289382695
-0.42362652147492735
-0.46814640835801075
-0.5066285226877199
-0.5271562033067033
-0.5587041050306939
-0.5625022594715045
-0.584614661088887
-0.6100741544812105
-0.6583966317600664
-0.6935596788510963
-0.7387416731583403
-0.7692116285908449
-0.811810434881225
-0.8430283737074957
-0.8729233424971038
-0.8941596150224755
-0.9103874622522248
-0.9420411433734489
-0.9933819377186276
-1.0607373924505203
-1.1080887542673048
-1.117116746860127
-1.1235152760568716
-1.1465001300912565
-1.1604293670933288
-1.1738390211714054
-1.1818385884832259
-1.1908287589665443
-1.2114828035558678
-1.2480660752323094
-1.2822626809720827
-1.3021654124803066
-1.305022161222902
-1.3085267335350859
-1.3291526926013804
-1.3684212862048302
-1.401610631441168
-1.4140694154791782
-1.4158644379729666
-1.4222505517360593
-1.4289529314946365
-1.4448188876903405
-1.4728981206676226
-1.5113581897385893
-1.534869924013972
-1.5318365925207227
-1.5266703734338953
-1.5370703488542794
-1.54960992870713
-1.556355705598128
-1.5560880793563658
-1.5716952106229296
-1.5943292568016973
-1.6127014543085783
-1.6170491566765552
-1.6134782157670449
-1.6102309044459266
-1.6207374826530407
-1.6260818615557813
-1.6171132852318095
-1.622215625859468
-1.631018088577646
-1.6349811069190836
-1.6423490370022111
-1.6421416065458767
-1.6432140241152713
-1.6275679274282377
-1.609551864656476
-1.6044301003064962
-1.6082422357699342
-1.6188590458321275
-1.6210297706946157
-1.6211700243366443
-1.6162357571235035
-1.6166100349515715
-1.6055171299022464
-1.6076828726714358
-1.6121298844199372
-1.6158150423393909
-1.6181366430850392
-1.621849866462664
-1.62116563855288
-1.6051073526258897
-1.5959606629894691
-1.5818337457350107
-1.5856228082010897
-1.5960465639754895
-1.5737493682852046
-1.5382709997437893
-1.510677107382274
-1.5059302741449125
-1.5145805799808199
-1.5250420667348212
-1.5101658158597135
-1.480032129038249
-1.4721854919159376
-1.4631389916857391
-1.4440532846546648
-1.4173798605172117
-1.4029641785620945
-1.3864741015115547
-1.3779900627625938
-1.3631799148529795
-1.3411384103314763
-1.3161479522048443
-1.2906599731358217
-1.2768909012844667
-1.2626445528943913
-1.2387762705168297
-1.2040754318379092
-1.158857143882071
-1.1116756950696092
-1.0866483217379548
-1.0819538298679283
-1.0722738474218911
-1.0545663929842857
-1.037690527871865
-1.0094493788684533
-0.9829740216684452
-0.966818075503622
-0.9457327983962465
-0.9331541142266883
-0.9095608636519972
-0.8868629605972906
-0.8751392590200078
-0.8649384347994142
-0.8556585983451301
-0.8341862909609933
-0.8035812549549537
-0.7916208316294973
-0.7922097851380351
-0.7873516156791811
-0.7547774865321427
-0.7070063383223896
-0.6727303009832373
-0.65165143331724
-0.6398097657432319
-0.6289729849516082
-0.5977868755101495
-0.5767737933648164
-0.5647196045563974
-0.5356922994038086
-0.5028198378426273
-0.47373720455507934
-0.46126690946990506
-0.44557950061104307
-0.43156310973747347
-0.40732207959604194
-0.38293192331785125
-0.37060411000406596
-0.362104436033625
-0.34889339832340643
-0.3428768820178623
-0.33826151719673775
-0.32254033779785873
-0.3048723985335097
-0.29228051824288326
-0.29483895315500397
-0.2942422115316183
-0.28439095719848695
-0.2677301255491751
-0.24731483944421861
-0.23016713995369445
-0.223003788270474
-0.2270485962199735
-0.2310138138937829
-0.21994968944660778
-0.1889765434379908
-0.157627157530853
-0.13841558983982255
-0.12524120545054163
-0.11993735146121837
-0.10175564388971572
-0.09907790183956354
-0.11038044664968613
-0.11460944774412897
-0.10230695509154801
-0.06889744433015706
-0.03787976317107109
-0.0324475184406618
-0.03581864834080595
-0.028159440831848466
-0.027170437865284232
-0.021867335013169696
-0.015302985736211742
0.0007606401561838538
0.02082956735517276
0.0314757986938752
0.03544472819156461
0.03517665240897963
0.029755196719075987
0.030775485303709653
0.03884703809613976
0.06129288383970326
0.08376994266845084
0.09468159673596725
0.09250146018622513
0.0885197918627435
0.08792375002642999
0.08216846192576835
0.07430506629324729
0.06738474006117849
0.059881339753807425
0.0575925293917309
0.06417990757455876
0.0897134068591954
0.09757394773621475
0.08715102709588343
0.06881983074872126
0.04654727494524028
0.03192923505874387
0.04144413079417533
0.05525670985221503
0.06146583535878616
0.06403857184205616
0.05839761278418549
0.05156165304345996
0.04841331707118949
0.04773211622173032
0.04158413488040681
0.050415103937749256
0.06354475602477017
0.077616627903389
0.07340611745661203
0.05091355755966651
0.030584845738054808
0.03317107300419259
0.03364979453172274
0.024697719400771652
0.009672097410150399
-0.004102736868831016
-0.004419891056949002
0.006280028701297776
0.004500619189130248
-0.008841901847080787
-0.03527252354709344
-0.05587065329979994
-0.058123944458144096
-0.04691395188326017
-0.03261500073482981
-0.04482625630500896
-0.08598783408183082
-0.1271085972842709
-0.14530048471697576
-0.14056215198196848
-0.13150676889551943
-0.1330855446737678
-0.15323099675956253
-0.15776387540964257
-0.17445175137038405
-0.20024123796184548
-0.23238401846271758
-0.2547047715685646
-0.26628594152554963
-0.2832986785470541
-0.2709527905310757
-0.27562978908595165
-0.2927498385356883
-0.30949375530065654
-0.3194505489615308
-0.3259741485877762
-0.3369957287389802
-0.35068132083202913
-0.36428136840812414
-0.3683327389685046
-0.38022600898426206
-0.4030092457652218
-0.42325190535653784
-0.45163073233894196
-0.4826490133835327
-0.5028758186822999
-0.512612158326398
-0.5167362660260603
-0.5219571832007012
-0.5279652000502228
-0.5466567550765765
-0.5755857613234286
-0.6034564341015504
-0.6323997624071761
-0.6541712499145774
-0.6693758150797589
-0.6664119467886392
-0.6696865345340662
-0.6679029364452255
-0.6775336675346916
-0.7025396550689729
-0.7377269673823551
-0.7595920994448698
-0.7745368038963503
-0.7755357754527518
-0.794928839587442
-0.8183666354195707
-0.8354667046212548
-0.8364567638860066
-0.8426904218695805
-0.8584323500647628
-0.8867264565893057
-0.9318371452807139
-0.9769728453294138
-0.9949665139229997
-0.996490469241327
-1.0059489776663162
-1.0276058121735658
-1.0547389698827616
-1.0699458322578723
-1.0845084414387627
-1.1148964026214294
-1.1464531860596574
-1.171845932440721
-1.191675771094023
-1.218139709926799
-1.2457355526851457
-1.2732332185769097
-1.2978767608674258
-1.3098915427921642
-1.310488514635185
-1.3112539044519556
-1.3201119940848682
-1.3382735529435048
-1.3507759716583916
-1.365848540829385
-1.3898895700133556
-1.414344635931469
-1.4294386605332123
-1.4556071042351846
-1.4626293259021845
-1.4782645367863438
-1.4841932168971803
-1.495663139357934
-1.5151054894691156
-1.5480030436864405
-1.580918861361286
-1.6025521355613257
-1.6202166866400443
-1.6409212258001595
-1.6655713764389983
-1.6914109387750749
-1.7080548542650447
-1.72281725704941
-1.7350782804098344
-1.7503212935445347
-1.7639595799461922
-1.7726271598476413
-1.7796716267317851
-1.7805066115700805
-1.7836676343189792
-1.802572868453239
-1.8311105762343798
-1.8436391164466883
-1.8416759969769676
-1.8328420387551891
-1.826284026086992
-1.8284025141062865
-1.8385796361847486
-1.8415501825756515
-1.838527637803824
-1.8374391590952928
-1.8492636978533479
-1.8572111341767497
-1.8548669285324075
-1.8419199286588381
-1.8311809911377386
-1.82203431570397
-1.8205778242976842
-1.8216188955014567
-1.811420785450795
-1.7905894208991135
-1.7646135336092916
-1.7405079377127646
-1.7414610791107605
-1.7470242386625419
-1.7489552973016838
-1.7265010118074071
-1.7153625372635979
-1.7137070280575446
-1.717565872798215
-1.7162573416038722
-1.703982562445156
-1.6883699257138984
-1.68833898811359
-1.696871303391166
-1.6895548262275886
-1.65998214561404
-1.6389753887218121
-1.6155505203144362
-1.6116808484999545
-1.6188243385887329
-1.6159278873259668
-1.5978069401618382
-1.568126878165137
-1.5363514476923172
-1.510418989598257
-1.4891135110126184
-1.463895628668702
-1.4317191695616613
-1.3993033709536242
-1.3831328799064757
-1.383824551424701
-1.380329461440781
-1.3631950354654288
-1.330598003917446
-1.3026867865122924
-1.2794698025043159
-1.265228040623942
-1.2343374547759633
-1.2026757353919857
-1.1726940179263423
-1.1535572514131593
-1.1355109933348453
-1.110937249051305
-1.0740493100174937
-1.0294361492283255
-0.9920624160043292
-0.9817756016793652
-0.9625797597751614
-0.9378445325723973
-0.8996490568610425
-0.8586873585769662
-0.8186351447809256
-0.7895767113233837
-0.7638975200591922
-0.7397812921220823
-0.7074779279132514
-0.6877533004975909
-0.6708578159124944
-0.6540607345962471
-0.6279180903770398
-0.5887841246356262
-0.5400319054673257
-0.49571520386638596
-0.46653125464715284
-0.4463938314645459
-0.42128279401186036
-0.386943192541543
-0.35529355742423613
-0.32879268714970794
-0.3086788804591096
-0.2717779812459965
-0.2367224699843007
-0.17515071978701735
-0.13254921844644757
-0.11412378026654559
-0.09700582032324492
-0.07450012997735454
-0.044488892739423434
-0.0051594717740713345
0.03736667360815257
0.0650669574149312
0.09501188155306878
0.12535223186094194
0.15210273437461175
0.1709730110002027
0.19506670733234582
0.21521107518448584
0.25000275898204144
0.2966775064846126
0.34148552491364587
0.36793073697667245
0.37355443723582954
0.38000549101386666
0.40008337427127144
0.4276680001264765
0.4697612328329804
0.49766175536139284
0.527831728171707
0.554151912952752
0.5726394145077254
0.5844992644560182
0.6058894622434042
0.6313021283179938
0.656755459727615
0.6819298418060674
0.7019286163963203
0.717653436414963
0.7278701908802754
0.7423307735102286
0.7591914638772003
0.7711160810126656
0.7881627803713822
0.810625076996406
0.824454497988851
0.8366588221621548
0.8402090164238973
0.8469962176715944
0.8652501120406252
0.8876378143344356
0.8995031194633203
0.903279082857202
0.9071972133361336
0.9320009378761115
0.9419800913912317
0.9414005847144955
0.9412422809814491
0.9488236583781945
0.9568161582408607
0.9639948770300467
0.9575394563097276
0.9508735747535908
0.9543698654879283
0.9643642624283972
0.9842118476234113
0.9959072389654069
0.9994498661453626
0.9914829721983611
1.0009970028280177
1.0325703770985895
1.069115903147958
1.0969036658950668
1.1247859283937796
1.1521556305971001
1.1869506613008858
1.2374146142821447
1.2962286151432099
1.3615671636278608
1.4331310887543982
1.519166161166182
1.6093041036216817
1.6934823316358303
1.76438520730701
1.8174440355041428
1.8731135320463388
1.9603933326900937
2.0661719002654166
2.1636061348155162
2.2475195979423086
2.3090744627433497
2.3638459656635917
2.4005559974339516
2.414030068682223
2.4082488739009578
2.364001624970273
2.297476216797827
2.217537216842073
2.110773155485032
1.978420532579376
1.841551479449709
1.6959104898424375
1.5372424535813003
1.361902960283724
1.1766233174540077
0.9792856384689094
0.7821147749521918
0.5939791899757251
0.4124568599805895
0.24061890606738953
0.09679461044713746
-0.02509902661349008
-0.12961894155588327
-0.21003099178363982
-0.2644832983876522
-0.3140105320136371
-0.3579809819599942
-0.3994246141719702
-0.434047427856557
-0.4511469413456318
-0.4647382365530829
-0.45465864257687216
-0.4523169113496315
-0.44884092865934155
-0.4530575888477866
-0.4585358371428512
-0.4686095717100141
-0.47745791532947984
-0.5003157892479996
-0.536855069938646
-0.5797290049854668
-0.6093845569860836
-0.6285451777494919
-0.6484787518682044
-0.6722139687317035
-0.7149858675531353
-0.7502230363254491
-0.7714945299991036
-0.7912892573358541
-0.8260632956886851
-0.8620623048896432
-0.8873630438960934
-0.9034693578984502
-0.923176093308722
-0.9452410687846887
-0.9800182911708971
-1.0189422546121774
-1.05558379887394
-1.0841243379661658
-1.1060693318098747
-1.126586414423472
-1.1590827651305822
-1.1989616068193871
-1.2391852343559189
-1.2733265993848684
-1.311742652606655
-1.3504483266459235
-1.380576420411406
-1.405771569252786
-1.4144209557727572
-1.4181041232018157
-1.428095885834277
-1.4611643261417617
-1.513937604524802
-1.552223469396754
-1.5702097556606294
-1.573070436722404
-1.5803223627769014
-1.595004397290912
-1.6146630835047016
-1.6295217100330048
-1.6414000627122067
-1.6670711611314646
-1.6988959929639018
-1.7286257792020474
-1.748622609474633
-1.754605862758864
-1.746262527612431
-1.7458617942128394
-1.7607207293078573
-1.7642845372776803
-1.7553270527129137
-1.7344536433274973
-1.719664228422127
-1.7094292661152273
-1.7254117578594506
-1.7236665183347673
-1.7041915962828211
-1.67919193172549
-1.6663658995516353
-1.655948337274496
-1.6409211036486413
-1.6209801214576567
-1.5991786481410708
-1.5831479033428546
-1.5866228531995397
-1.589771778162248
-1.5810028010404034
-1.5642876560138046
-1.5475657135681837
-1.5229087618146877
-1.506496589969873
-1.4946743535540365
-1.4804310560688585
-1.4628594156966064
-1.4444094453741867
-1.428142032483964
-1.4055226463321195
-1.3796132753421047
-1.3470681478287563
-1.3008801390135507
-1.2633377361208453
-1.2371998853329902
-1.2224796269274378
-1.1978294999879024
-1.1657047923754091
-1.1276458016666866
-1.0925170686174455
-1.0646062380253614
-1.029586819200741
-0.9764894905447681
-0.9199785609991222
-0.8841786295715623
-0.8581216290919573
-0.837553344839194
-0.8050981874192975
-0.762910996223695
-0.7158933833944999
-0.6759659213273128
-0.6400968145511501
-0.6040339586500669
-0.5632203984426379
-0.5146252574463106
-0.4552179384536569
-0.40668583935640407
-0.3675246657044995
-0.32158281697120683
-0.290548403141337
-0.2515567982550423
-0.21195412914783474
-0.17206808786253297
-0.1374142032335876
-0.08421306753487784
-0.021642381491314873
0.042340662042028306
0.0872673209651
0.12715152088455448
0.16471629668570692
0.20970323686477907
0.2544599260333128
0.29072360346630505
0.3291512360355343
0.35568205983546247
0.3983670122183479
0.45443618636113975
0.5113546898001846
0.5520103307867251
0.581872619788911
0.6143452405397225
0.6652732356619638
0.7236479340193928
0.7747989087680149
0.8141260634430088
0.8501512174479972
0.9017717054322432
0.9543177604580284
1.0059364151572432
1.0538594429921604
1.0977601000632613
1.147382066906263
1.2030094032086083
1.260959389102132
1.312972223118515
1.356891534687986
1.390256095671707
1.435017561558195
1.4841379804917652
1.5318003627717351
1.5721880630280398
1.6000951050636856
1.6252685784392449
1.6540992190911763
1.691757519110916
1.7345648072415778
1.772129358066819
1.7943650153918396
1.8342132025611875
1.881893769815605
1.931594047008334
1.9475964068339933
1.9591821475378912
1.9742720246719911
2.0041439872803264
2.041461868892347
2.0758384083596306
2.100853869987317
2.132365478093891
2.1679215201323014
2.200188266066879
2.227020158688856
2.2508495031269637
2.253663583535223
2.2601721974975106
2.276776227617655
2.3132338020192105
2.339327980282461
2.3590199440685238
2.3677269966729844
2.3758196650713375
2.379021456486791
2.393807088828989
2.4070515599733966
2.4153954205462242
2.434704645090547
2.4579589435447553
2.474781817888142
2.4818159037796175
2.4824178114131756
2.4790291943088345
2.472566432371746
2.4688289292233656
2.4739217516086702
2.4753358821684324
2.46697110236479
2.4582907030015013
2.44960375014366
2.440914637903699
2.436195283607086
2.411953935437787
2.372468612099232
2.336970496437403
2.3268273288056
2.3264832847666046
2.326180970339617
2.3021262000409983
2.254327477163904
2.2258208873196654
2.2016630723212884
2.1989525834700148
2.181385869973678
2.161484918067019
2.1368193971121925
2.1110624948655863
2.0866671370664047
2.060288621259879
2.027056807981371
1.988205040502166
1.9590042215852583
1.9339748882719854
1.9091636746981062
1.8769556307530564
1.8297360981464832
1.7788104441645742
1.726939907625081
1.6857355466635775
1.650635341761312
1.6115846859419547
1.5673787607718883
1.5201696971648242
1.4855367510870874
1.44701787683836
1.4015781327646015
1.3461827558465793
1.2900034373657265
1.2397707688340258
1.1958071883754906
1.1627074705938296
1.1349963296620953
1.09224589426227
1.032948141351809
0.9690220568447965
0.9209311106422604
0.8783179730859988
0.8311305344844708
0.7867106955233582
0.7438559987535388
0.7129599906960113
0.6726798955893551
0.6190669074688371
0.5573269370190262
0.49510714430133507
0.45226095800310745
0.41415902094536944
0.3884484115648085
0.3592790611190141
0.3059183309167487
0.2534070910491541
0.2042045084387574
0.16687281061318462
0.12586671852516412
0.08395028263130032
0.04297197362228175
0.007221402846659989
-0.027861500592024385
-0.0738555548710309
-0.12860764665083207
-0.17989462458367358
-0.22495336475895186
-0.26773436359055075
-0.30547483006890497
-0.34151529324339247
-0.37828099438639085
-0.4377274230067797
-0.47986336259425594
-0.5220673447804404
-0.5557797517686123
-0.5898351382847874
-0.6443590940741314
-0.6952296469415902
-0.7341932276967622
-0.7652027893122867
-0.7937373112990873
-0.8353462047084922
-0.880861400794219
-0.9177583561690471
-0.9545686293235008
-0.9842610257603902
-1.0202501460452442
-1.0661858308226768
-1.1125964353596378
-1.1487899616909159
-1.175975819194878
-1.211842184610706
-1.2655331177389177
-1.3187288200710652
-1.3561613524930354
-1.3738538804189053
-1.3852238186489396
-1.4039940321942161
-1.4493805093043566
-1.492384703221823
-1.5320828221890999
-1.5623637003020285
-1.5813886700235797
-1.5989153344382996
-1.6204293954906361
-1.645618868390121
-1.6723411246642281
-1.685026920102445
-1.7083880539175624
-1.7344848080440927
-1.7623963768303919
-1.7930331946652343
-1.8138790773188886
-1.8273708364467947
-1.846015763963692
-1.8753028300513057
-1.8935623094813123
-1.8974341963426784
-1.900952730948828
-1.90442036819297
-1.9282802200071327
-1.9630702798323028
-1.9791884495489591
-1.9729712678648361
-1.9621165507221527
-1.9573037734504481
-1.9652456398931366
-1.9758714793416359
-1.9794160446711524
-1.9691659240713169
-1.9622102249045732
-1.9664835980512834
-1.9734424632884402
-1.976374435705686
-1.9728395799550917
-1.9661961929791396
-1.959497657789906
-1.9594594833472252
-1.965168486596672
-1.961369331806578
-1.9544730716993808
-1.9511961432337963
-1.9616119358317488
-1.9704660153611153
-1.9710485650614111
-1.9624479677364572
-1.9486353308648585
-1.934192282980243
-1.927972856093687
-1.9305920388421438
-1.9234401154097456
-1.915066549760701
-1.9100539522628224
-1.9105438619966908
-1.9095232858574056
-1.8963175238987562
-1.8700170807388072
-1.8260507472522398
-1.8083674707997657
-1.8053777616313933
-1.802440720298961
-1.790408434629995
-1.7598279903901393
-1.7293210834292143
-1.7114064148807429
-1.7048707589491878
-1.690191602279007
-1.6719539853611562
-1.6486399408512928
-1.6248347765880646
-1.6164147440506467
-1.613623019323521
-1.5951069291292885
-1.5669780636753405
-1.5362636010019337
-1.5194507042904755
-1.51929457498231
-1.5217668782169806
-1.511923911966165
-1.4876386761035467
-1.4550235121458106
-1.4272094717357893
-1.39596669827382
-1.370764540036731
-1.3455094173654911
-1.325398649596782
-1.3089161800959959
-1.2924099308525452
-1.280772300216102
-1.2553986588231532
-1.2263692205819574
-1.1781310662552498
-1.1418203867741514
-1.1195835059403085
-1.10410693579547
-1.0892978744832842
-1.072725460913838
-1.047686686138046
-1.0291447490410797
-1.007955480399785
-0.9807727416193742
-0.9332647786178211
-0.8889393642406369
-0.867032108209663
-0.8559577820257476
-0.8386383603800204
-0.808676347885139
-0.7624206904840624
-0.7188019880437859
-0.686375518965504
-0.6547768372612647
-0.6209652853973292
-0.5864775773121975
-0.5577329529809555
-0.5341320467276549
-0.5062259416674931
-0.47494106789098856
-0.436321342008473
-0.390988036304944
-0.3532944907171966
-0.33118573781804583
-0.32131598557290786
-0.3029454714469775
-0.27425416116056217
-0.2318962164124563
-0.19876929321201145
-0.17000172239043984
-0.1507919940175765
-0.129554924728389
-0.10874252748846219
-0.07829533601009385
-0.04920968885339501
-0.036448925607289004
-0.02110389643151302
0.0050540963346734314
0.03835267274280068
0.06443900708947557
0.07597894622785967
0.08211688470568408
0.11091702535357914
0.14619585138404076
0.17909368915865986
0.2068540830148555
0.22366908407424277
0.24875371211062497
0.27324861397413897
0.2992801831421687
0.31554799086927676
0.32692503397037886
0.3428617665844137
0.3758603181145794
0.4143155100995513
0.4667626476018685
0.49626873448654335
0.4958062947672772
0.48703274783684974
0.4983190971161789
0.5235537178999896
0.5517426053981386
0.5703661073832291
0.5882657148327586
0.6036025645154465
0.6218617151612472
0.6387633507067839
0.6533845419839125
0.6571735930924614
0.6571419892381605
0.6718973576901021
0.696550398827818
0.7210243194691818
0.7404301801332508
0.7492689130247745
0.7460086833036784
0.7428499219854787
0.7675562727642055
0.7770951207435682
0.7998408309338826
0.8177840898589342
0.8281736548161732
0.837108057323209
0.8412261774391457
0.8411341622559181
0.8411002723216335
0.8484445708533915
0.8591965408747426
0.8779303037558633
0.8878592212705085
0.8911166434485127
0.8873949108559951
0.895916672941203
0.9053891174986172
0.90940220371012
0.9067338221649422
0.9050116835024233
0.9033193631989292
0.9083696334075663
0.9088712643308657
0.9008570705270138
0.8916509561892235
0.8797275449911194
0.8782092831121093
0.8825197826041785
0.890829352609518
0.8894074575160517
0.8803920196549601
0.8610387340680402
0.84386144203059
0.8242854736103047
0.8197077645686964
0.8148737262408771
0.8061250337858203
0.8053666696976023
0.815349194500265
0.8327203184715337
0.8474145873313291
0.8518080967536203
0.8575021356075754
0.88220142774555
0.9149262155459039
0.9547672178602764
1.0008154428332228
1.051551872375928
1.1069835608616236
1.174441619508843
1.2600368142508047
1.341805734062361
1.4160946765238482
1.4823017876973257
1.5651535319931957
1.6619125014862701
1.7521424420074287
1.8294445942709552
1.8892514043551794
1.9511029926115666
2.0086013764248944
2.053823038829475
2.0834220675774024
2.1010714081441537
2.0991534299397765
2.079510608289775
2.027812318524742
1.9486479039131606
1.8453862981832498
1.719565705839441
1.604155726604112
1.4894041607883088
1.37288277694833
1.2481964910216692
1.0799604732705266
0.8816152166026717
0.687657228768514
0.505729352099072
0.34316942912781906
0.19541432355941857
0.061562927958848074
-0.0782054732057336
-0.1750511073781703
-0.2655780853771189
-0.35099217550401407
-0.4343299845642646
-0.498182493615491
-0.5419242392531286
-0.5472305633765981
-0.5458225103144378
-0.5379898748127786
-0.5569793706715855
-0.5731752926203616
-0.5944962295604402
-0.6172647714937187
-0.6365828619479357
-0.6393131925971038
-0.64527542859736
-0.653538558498635
-0.6540168755921416
-0.6567650743615949
-0.6687863161667994
-0.6955580246048645
-0.7300462375184902
-0.7560623453670859
-0.7723705162287308
-0.7765143762392093
-0.7800748771061401
-0.7845628905143442
-0.7942358183993824
-0.8014500591799214
-0.8074117040645906
-0.8056980603136471
-0.8191816767611272
-0.8237410644496554
-0.8355356528040638
-0.8453970106316907
-0.8499548854972554
-0.856214570467172
-0.8855239564706084
-0.89850488119466
-0.9015529856751691
-0.907167293101463
-0.9067912309141666
-0.9269615563659207
-0.9524087619797347
-0.9730512861954045
-0.9833852075612931
-0.9879770819090996
-0.9871215642501562
-1.0030849322615656
-1.0151066199913181
-1.0189048710219042
-1.010808573948148
-1.0130853137299756
-1.031524534244744
-1.0594045883525587
-1.0701689729965362
-1.0662514807935661
-1.054053319681082
-1.0555390910625129
-1.06612510828878
-1.080312603532434
-1.0901619475530346
-1.0904803266572471
-1.0855352051975082
-1.0759325726887599
-1.078147006359201
-1.101940045926188
-1.1006195812335533
-1.08791504676486
-1.0644345505840949
-1.0576404650113345
-1.0574612696917394
-1.0638960706123783
-1.0540576296682516
-1.042898640813337
-1.025842186574515
-1.0227243700430355
-1.016152570616756
-1.0024666899845107
-0.9902133669894114
-0.966578690816783
-0.948349446072283
-0.9489561396723956
-0.9424644558688731
-0.9267427866443875
-0.8987445008902368
-0.8801411440041905
-0.8611735193881448
-0.8476458883422646
-0.837734023784458
-0.8149665929252573
-0.7961348277024715
-0.7876550481275036
-0.7706159579829257
-0.7450264284661516
-0.7249329794237447
-0.7140072023038752
-0.7104282697786147
-0.7059674591057971
-0.6945325470297145
-0.6648440322807766
-0.6324766309014169
-0.5907289678070192
-0.5640260724583774
-0.5502446694946572
-0.5353607150479023
-0.5193877475561601
-0.48952305033317794
-0.44913757341222843
-0.4128934108238891
-0.3887395199163916
-0.35960228327306365
-0.3206146727684548
-0.2736234115576264
-0.2155929927166879
-0.18559987159890487
-0.16626669459188823
-0.14723497746508094
-0.10288862269467494
-0.048807982821871744
-0.014000548581989505
0.024402693330352956
0.05509295332873459
0.09300476702052697
0.13476306181228437
0.16570178302200733
0.183361006557825
0.21518606577179636
0.2513929890934378
0.2925730284163943
0.33626575641111606
0.3696353070608309
0.39052623179545753
0.4215007411262831
0.4668115581992207
0.5163689744317008
0.5536749482373797
0.5826769474704774
0.6097636899901658
0.6455960993941703
0.6797792738983646
0.7162607292624801
0.7431198531954787
0.7759002343377851
0.8176340876603323
0.869522767726711
0.9278852099067314
0.9804960572373346
1.0233693166810471
1.0445850424840462
1.0615185217542378
1.0820853281335778
1.125186863634769
1.1645614542419973
1.2053788082382444
1.2476211695662909
1.2879142727143298
1.32654596912034
1.3543444811438374
1.366410485610325
1.3779852972890902
1.405836293583637
1.4456752960198875
1.4877215960429973
1.5279927804396192
1.5567087698655901
1.57049811532928
1.5842991373039985
1.618543334987093
1.6451425792778278
1.6826981547704416
1.7095309794095903
1.7356987021369605
1.768818110014563
1.8033846360907222
1.8274858248837178
1.8374488836429703
1.8439438329613616
1.8606926992108377
1.8852446206298206
1.9062996256778333
1.9165252398927455
1.93178139271364
1.9233755345484875
1.9260882753425752
1.9530345431177913
1.9752180592442177
1.9871401313558623
1.9942882140139735
1.9899439685764846
2.0110270261157077
2.0126753993688293
2.0177724918421314
2.0174658673259147
2.000767496022124
1.99117261490899
2.0124821275778526
2.042113560324789
2.055043693202386
2.0500520756741234
2.0362941116437843
2.0317752732129906
2.0142207977597737
2.000721704469357
1.975717704013447
1.9678967999753958
1.970244111775447
1.9763555736597942
1.977996674540213
1.955337425747779
1.9291342311003934
1.9076325378342838
1.895416389854939
1.8961548375371218
1.8881893603178752
1.868171334738019
1.8336680709754782
1.8069650651129276
1.7847150622006696
1.7708950225820026
1.7411027278302165
1.7090810336261055
1.676672088775736
1.649380342467426
1.6211146784981614
1.590361736286258
1.5473693018012782
1.50008465703525
1.460117341790479
1.4280916009064097
1.3945618461970735
1.3619839619131213
1.314809893467235
1.2704488822622724
1.2160999239871457
1.1743605465127434
1.1272426672371958
1.0723214987625393
1.0193788089836617
0.9818585093543797
0.9542850138170169
0.9244695133537414
0.889378136262975
0.8362121925218475
0.7781115489326517
0.7221131155322363
0.6822725909694918
0.6512848345744311
0.6184881260374795
0.5707796242736721
0.5252671704307648
0.48502148753762336
0.4412122678001895
0.3828731887506419
0.330774344679724
0.28615583153685775
0.24293402024800675
0.20784191608051553
0.1638102870061149
0.1075019809677548
0.05633052757388623
0.0078742234971697
-0.03723709365257226
-0.08020457259654835
-0.1167365893595626
-0.16268196101620377
-0.20703575624794415
-0.2445911235138303
-0.2841785466518883
-0.30502838386820796
-0.33855299770336494
-0.39022653516801814
-0.4405004111364819
-0.48416859325046135
-0.5199922702593381
-0.5580236352505537
-0.6052635106463873
-0.6577272733053054
-0.6955623510048405
-0.7288218066243273
-0.766643475995051
-0.8126726209607409
-0.8681135111292753
-0.9228798763288223
-0.9531536591178112
-0.9717359550443543
-1.002108663688141
-1.0479187821234437
-1.090231999326422
-1.13391659243646
-1.1710245763459994
-1.1905567407301176
-1.2108093163477889
-1.2268869517207108
-1.2448803218206739
-1.2650824914342131
-1.290533322184163
-1.3120667782544821
-1.3357750764966445
-1.360732219821623
-1.3814352599224227
-1.396959017123946
-1.4137024996522134
-1.434708407733871
-1.4605786093104012
-1.4858122581004318
-1.5015522116219975
-1.5166408782547187
-1.5258838760076414
-1.5283594645419154
-1.544202191094433
-1.5651674332436014
-1.577823344467511
-1.59711814268365
-1.6160291805863471
-1.632721933272168
-1.6496345272003405
-1.6621869255333726
-1.656339670682985
-1.6555880858021577
-1.6611514713860633
-1.6730289478840026
-1.6777931680046487
-1.683683387883894
-1.685207234926832
-1.6869429635992181
-1.6925537951433383
-1.6953280427778614
-1.6967936949515054
-1.700920425833321
-1.7006926766199313
-1.7000809666506942
-1.702751074249635
-1.7022990030752618
-1.6941521062746827
-1.6828928530364458
-1.6740195799334845
-1.6708949136649995
-1.6680323076805461
-1.668795151037944
-1.6658667040018105
-1.6607801493724237
-1.6614773283638924
-1.6539291180106526
-1.644247111384181
-1.629998837428318
-1.614550139583664
-1.596079510278247
-1.5797843690849962
-1.5815429403356769
-1.590685071669198
-1.5812830402104463
-1.5521271312511096
-1.5340494010967722
-1.5255355081279784
-1.5171372761046837
-1.5106975856935532
-1.49646357835752
-1.472921861965262
-1.4562583729955312
-1.4449601367233917
-1.420120414563019
-1.3872452245376485
-1.3609954735173446
-1.3487084607685942
-1.3522288108033969
-1.3618053201252551
-1.344800132283286
-1.3161800306838438
-1.2829778259754825
-1.2552780034102218
-1.2434702981778392
-1.229870069639434
-1.2163228073943482
-1.2083359489256296
-1.2043983689170166
-1.2014731978626088
-1.185537940071224
-1.1556918788665236
-1.122019966426823
-1.0936916846922957
-1.0685856921162498
-1.054650814705079
-1.0494605067733649
-1.0371612696723693
-1.0229554007903197
-0.9867170963281577
-0.9574507879304158
-0.9299832298086118
-0.9012771911085304
-0.8731778612479274
-0.8405117118985441
-0.8087856032288386
-0.7951022467108717
-0.7875742948660711
-0.777365834274992
-0.7513686056279855
-0.7169197253106224
-0.6883747626636072
-0.6608642168644623
-0.63867312489721
-0.6138800532844729
-0.5855819917430352
-0.5669129607899954
-0.5548334465166379
-0.5456934089480342
-0.5312652326216426
-0.5063726492935676
-0.48262280396870116
-0.47314839132504766
-0.48253746399969577
-0.476622868796276
-0.45449933034628853
-0.4164819448141361
-0.38027950445950803
-0.3642108495800552
-0.36675933480568557
-0.35955421047820035
-0.35053815012140815
-0.33819367346864493
-0.32680100090444847
-0.316062707035349
-0.29805214623118165
-0.2776589794017103
-0.2570261566011968
-0.23188802894260296
-0.2190344906450091
-0.2135889754431965
-0.210369455970231
-0.19839561364345104
-0.17950342409398487
-0.15369761282274746
-0.1420384412585024
-0.14117329010687044
-0.14012030272886397
-0.13064372846161654
-0.1209859948691773
-0.11664280736486246
-0.1160909496846519
-0.11445017062260046
-0.10073677069665089
-0.0819710187390067
-0.06913992419389577
-0.07506113869305008
-0.09027554259688463
-0.09708447621729335
-0.09457262884037596
-0.08335018334838681
-0.07714879074300043
-0.08451214356211759
-0.09475874965108301
-0.09507073600660328
-0.08392076691265822
-0.08053191920827157
-0.08581756991631133
-0.08909485741297354
-0.09280241494338744
-0.08778264501714625
-0.08166133907343101
-0.08175888104398404
-0.09325930884036192
-0.09998541807562347
-0.10467951131135525
-0.10459083035950356
-0.10703857611994003
-0.11995204173461539
-0.1326457168501137
-0.1405370224282302
-0.14453600170227862
-0.13151526754873813
-0.1353414391041243
-0.1560085009452316
-0.17916786664032228
-0.19108108502450916
-0.19021581781803987
-0.1875510025281572
-0.19437057200580785
-0.21402421707273458
-0.23368814918684233
-0.24755705020227553
-0.2559286068390797
-0.25635395912221104
-0.2604213499379437
-0.272395130112476
-0.273957906618637
-0.2763924222490567
-0.291286474654776
-0.3128338073050524
-0.3379744877743197
-0.35266284170714834
-0.3684863174950008
-0.3677372041506481
-0.3687162685951807
-0.380264345310511
-0.3977952991650869
-0.41061980297132505
-0.42330634417435525
-0.429132558013503
-0.43938032017086803
-0.4577025512989765
-0.47340976516040645
-0.48527233230161754
-0.4899245135757234
-0.49834295194565653
-0.521504291469173
-0.5435313528189631
-0.5668563975291171
-0.5783486887773271
-0.5798302119898407
-0.5825828509640196
-0.6024658782183956
-0.6217713152591989
-0.6487295826575076
-0.6613605879362572
-0.672777361426982
-0.6814454442446808
-0.701088293865908
-0.7219323295240255
-0.7387813946554912
-0.7385053175067033
-0.7558836745691266
-0.7762606616326535
-0.8017642003171055
-0.8232314833157518
-0.8354668356769656
-0.8363262467160607
-0.8483835313606238
-0.870715502680594
-0.8859205895363101
-0.908638827327324
-0.9318442013963852
-0.9479004935311889
-0.9659552424886657
-0.9884426455179973
-0.9912483456492894
-0.9963368371255623
-0.9975982787253381
-1.0151664696301474
-1.0395750918963012
-1.067461099605008
-1.0890532772733985
-1.10770229953846
-1.124317717809203
-1.137367961773499
-1.1495937982387148
-1.155802046208887
-1.1575131215901422
-1.173641538776337
-1.1950274954515017
-1.22075057509344
-1.2483647188432172
-1.2574197398578841
-1.2567606831692444
-1.2616410395948492
-1.2732772168156594
-1.2974631263345
-1.3192421399028005
-1.3270145051337918
-1.3216920604017932
-1.3200549637076453
-1.3306442774409344
-1.344912410872003
-1.3454623633114302
-1.344802682800244
-1.3343862208944357
-1.3337404345376767
-1.3514072698122488
-1.358394489028979
-1.3485967872065006
-1.32964107694716
-1.3170885019802008
-1.3167353215775757
-1.3175942953836748
-1.3144763123290402
-1.306769761341429
-1.2972199020192252
-1.2977268498556989
-1.2994401741851747
-1.293509583982719
-1.2814602703322349
-1.2736671197851381
-1.2722659127402611
-1.2714584796877852
-1.283451058529219
-1.2847466341774716
-1.297011583905254
-1.2836274004910586
-1.2714483964294574
-1.2616958133756777
-1.2528446078054933
-1.2549658362973748
-1.2573799959463432
-1.2585624245797258
-1.2630917281242209
-1.269748650444331
-1.261751043266951
-1.2482552382987147
-1.2298732875120773
-1.213320505534496
-1.210805154239212
-1.2143952405484824
-1.2054783871692079
-1.1846672327767132
-1.1626447162398539
-1.158333132590116
-1.1580030730329678
-1.154638696972537
-1.1412242734926668
-1.1281381381597053
-1.1178246479973417
-1.1047941804071393
-1.0911861470448503
-1.069069877702811
-1.0494345490533363
-1.0325889394552568
-1.0197573998141658
-1.0216242528854698
-1.0247665050601074
-1.0108787461283957
-0.9949177927126667
-0.9814652139094804
-0.9732717305963894
-0.9614921853815196
-0.9446052852092689
-0.9305497003869735
-0.9113960195739637
-0.9017965503567839
-0.9026716166150014
-0.9027353432167537
-0.8876503696054154
-0.8671868355781158
-0.8407396215558777
-0.8177738769115461
-0.8175198616823397
-0.8186220146960594
-0.8168136548841868
-0.7986734646973015
-0.7846526479010605
-0.7631609826852085
-0.7445796370357615
-0.7228113658380607
-0.6963363533651094
-0.6807236553762579
-0.6820825252313311
-0.6732601543819485
-0.6518215306259063
-0.6162471785419169
-0.5900405733758227
-0.5713772088468735
-0.5700286115184032
-0.5768466236723722
-0.5662046589891447
-0.5457383173601641
-0.5166749529732025
-0.49733077363657646
-0.47398053694988407
-0.44937753633193966
-0.4339040416896107
-0.4208535679336022
-0.41633627436115755
-0.41456123307976017
-0.40516019875645753
-0.38752999290513784
-0.3659499873004003
-0.3358500298189597
-0.30974880050146614
-0.2827710506872327
-0.2625530019986759
-0.23659052830577937
-0.2195385124917715
-0.2129300994110459
-0.21494172236569423
-0.21245901448266172
-0.19358824948312678
-0.16840702560648943
-0.13417634709833048
-0.12325029490097039
-0.11946296308006439
-0.1234320872918676
-0.11410924017690478
-0.09821528760769335
-0.07270605543991868
-0.056508670606383246
-0.06305741390546382
-0.050247943196949446
-0.040364052401104876
-0.019375806704570737
-0.0028534848558756116
0.011331783441147195
0.029886263307800986
0.04212230299671817
0.06847832526576986
0.09552035678934456
0.11256089053997768
0.10555574638140339
0.10165701958762578
0.10451976757621453
0.11657848612042425
0.1378264845896819
0.16276431828788854
0.17429664926370841
0.17852016604541335
0.17634397212409086
0.18973310537393326
0.19609975355826165
0.2039822330533713
0.20269406218829905
0.2099284816544068
0.22262815649530523
0.2386513382828266
0.24487074014629331
0.25653881400215645
0.26358009522359704
0.2647688082166503
0.2689494991493193
0.28313591096629354
0.29725312967591616
0.3027521749301969
0.3121400620534911
0.3199196901090297
0.33219009002485617
0.32331411242166586
0.3314326213580994
0.3330449071421702
0.3235701793586765
0.31368568481447706
0.3076605532358815
0.3109847298844292
0.31144923555115084
0.30813609997377023
0.29677082189249365
0.2913885305956606
0.2800862017131279
0.2689652910009519
0.26809450842055765
0.26953850608200985
0.26536215352945514
0.25525946963566254
0.2471639398171931
0.23649783223754206
0.2397394876664966
0.24407239135336808
0.2556000061597719
0.26577848779059526
0.2685054877955389
0.2708006561778046
0.27724262847069897
0.29881858516399806
0.32515495228967606
0.36205173324610473
0.38967597994417685
0.4242035396774557
0.4586185681008205
0.5148954039813975
0.5728969528045949
0.6286597043468641
0.7038536051462188
0.7887176708236227
0.8768479021831224
0.9636714995954384
1.0363766768528002
1.107785105313625
1.17881758339141
1.265347865776991
1.3469362605705084
1.436405459991108
1.4986687358802993
1.5496008570313173
1.5800539559903182
1.5973589007141562
1.596945677339344
1.571803260106335
1.5164466522954672
1.430578769824739
1.334043139434389
1.2353927089860528
1.1349414161990936
1.017135256745517
0.891748497110887
0.756654498196372
0.6100319979991343
0.46775906576092263
0.311536381537271
0.14839287750179747
-0.02379702495792215
-0.18335644686202204
-0.31532177187254706
-0.43219333771429785
-0.528161867776762
-0.6084035632493939
-0.683892436807557
-0.7500393172031994
-0.8062219129179411
-0.8585312324044392
-0.9011570035744513
-0.9224908230771615
-0.9176376060087797
-0.907945650362314
-0.9031671563119846
-0.9158006193097649
-0.9473587649796057
-0.9657869266296477
-0.9750388839932757
-0.9815095833964966
-0.9934248308947643
-0.995818413059215
-1.0066810213616255
-1.0159288287956625
-1.0189707849489595
-1.0276942816421322
-1.045137117112787
-1.0563327895604357
-1.0634035783932645
-1.0675562804281862
-1.0727441042429924
-1.0798686927697858
-1.1078359756804277
-1.1355763184488321
-1.1566676620117067
-1.160110630745461
-1.1529101708528038
-1.1530569446641794
-1.1678611814887598
-1.1948681580329361
-1.2242994646205234
-1.2387478570252783
-1.245523923997844
-1.2650601243409212
-1.2918506799467084
-1.3060475567094842
-1.3079432321166724
-1.304238632178827
-1.3135359691536102
-1.3379591349243307
-1.3652898099287205
-1.3738499864411011
-1.3569145497776798
-1.3443774450349668
-1.3401944687198575
-1.3510680499274685
-1.3589831147432656
-1.3703373966946504
-1.37566070041653
-1.3911162830039554
-1.4136427601248385
-1.433465557331759
-1.431655660609631
-1.4262083545873416
-1.420166513557983
-1.4235919240929251
-1.4392229059507904
-1.4520989758586098
-1.4518373268169191
-1.4457545925596569
-1.440252267623678
-1.4417321852191591
-1.4398128798710568
-1.435098894636751
-1.4266693435443327
-1.4200120032772485
-1.4215304897911807
-1.4266431344444979
-1.4213087747730495
-1.3988104028400017
-1.367689255837057
-1.3489984059968552
-1.3344962343100772
-1.3351664221595347
-1.332697967122796
-1.3341083172329418
-1.3241388577491455
-1.3259811880288002
-1.3158331204476763
-1.2936951428966827
-1.2693331916632435
-1.2482414240443631
-1.2411020916956588
-1.2430348552691988
-1.2311555281315028
-1.2246920367701675
-1.2022868319426983
-1.1755397633823883
-1.1517789066163049
-1.1438255915125979
-1.1370374287110026
-1.1277581102554328
-1.1040925074673102
-1.0819152137551933
-1.0484164688877524
-1.0075705730607911
-0.9725069555433525
-0.943844013862987
-0.9188438254532663
-0.9042287448861058
-0.894820399353947
-0.8753706277188887
-0.8446688916624128
-0.8018101992181559
-0.7593168577478909
-0.721167153707998
-0.6962222622297967
-0.6783910264308616
-0.6533434090234093
-0.620481801453126
-0.5911100746119163
-0.5771427574569326
-0.5459417710646701
-0.5109480968239767
-0.46485235191817076
-0.40919502583864975
-0.3732862162011343
-0.3556154467193177
-0.3375837309049614
-0.3167656935226318
-0.27029070311521225
-0.21312787981061398
-0.16116207026753795
-0.11990302351638615
-0.07075330935516126
-0.01281483893410772
0.027040959062165484
0.05550973690031806
0.08233852251973531
0.12154635863693984
0.1715890982493196
0.22085224423339123
0.26107787514218556
0.2928574850858953
0.32685262355966715
0.3636545344787055
0.40629561101363926
0.45201016392982085
0.494370533328147
0.5290850863489739
0.5640684151430048
0.6026577051957211
0.6454436902315768
0.6811159495640369
0.7078239210904059
0.7380594279090843
0.7739389608456549
0.8249028056801371
0.8799457541575557
0.9433205034422647
0.9863228376907415
1.0174777861194448
1.0443949906992287
1.0807873329032591
1.1382317026246507
1.1919914087975725
1.2350290080330897
1.2658000303579573
1.295881920021656
1.3496688901730998
1.3920496886521905
1.4196495992699327
1.447708695657578
1.4902466375758783
1.5475512388492727
1.6080094215034193
1.6255255972942733
1.6437206411004608
1.6647143246483778
1.6973401577700735
1.734868926475255
1.770571718186924
1.80016118909201
1.818434845342178
1.8458237253420526
1.8756002212930076
1.912938204465309
1.9431766900783778
1.9644716618618767
1.9826084090528917
1.9966591484808094
2.0182079335647503
2.0426658895828536
2.0550692073102095
2.066698009148597
2.0839503263755415
2.10620600593894
2.1255215599140302
2.141277715323046
2.1565175343160163
2.1632988764507273
2.1845009345293254
2.2015019938197327
2.226196525735291
2.223485274803348
2.208925552834617
2.214858798575194
2.2260224214529063
2.24759985068478
2.267381050957705
2.2655275541155273
2.2539377346504335
2.2527497107484473
2.2576895303321654
2.271502359523926
2.265197524916834
2.254642960461523
2.2407544053214568
2.2439781625835606
2.2475318680154195
2.247145105915308
2.2321396645485643
2.2183865077654237
2.2007012571252393
2.185801162862089
2.1764369295765134
2.164068941970856
2.145040591270834
2.123629843623173
2.105946093498769
2.089249659442906
2.084838566667207
2.0661718261292648
2.040276204305139
2.0108222023032654
1.9741570075214434
1.9510408322541697
1.9304979911005835
1.906435753490985
1.869405094009583
1.8279616865663544
1.7998163398595577
1.7773522314730086
1.7444085439090504
1.706185858070746
1.666664515672816
1.6225014678284988
1.5862222103675567
1.541972987460096
1.490684041703204
1.436947847204181
1.4006150720813597
1.3731570955342016
1.3423837276433512
1.2997669710898438
1.2425771110380293
1.186088990986233
1.130319872212329
1.0929863958940345
1.0603742701269732
1.0196849174295413
0.9843635075211243
0.9516821013504296
0.9109788828847939
0.8610521054613157
0.803446622710954
0.7418435625013817
0.6909098726220918
0.6585991938196782
0.6278424184461049
0.5916407513288703
0.5405542542568682
0.48741956344037096
0.4292052328067687
0.37874806597238175
0.3397302171856091
0.2975244643624735
0.24330161211129142
0.1932553802629793
0.1477113326910816
0.10333315128189921
0.06471859561841643
0.01785081820628337
-0.03908077494216657
-0.0950702221110974
-0.1436889758260307
-0.1611145996164636
-0.1992037124915417
-0.24023719454777415
-0.29121375989567005
-0.3438743808767876
-0.39148594317907487
-0.4325031431337576
-0.4824696281018218
-0.5377043060947242
-0.5777426140636923
-0.6129410451251658
-0.6423654717920116
-0.6800346719781799
-0.7265407239281818
-0.7766779453776126
-0.8246305752904908
-0.8636676266077856
-0.9041471681640044
-0.9408645185245088
-0.9783802992507643
-1.0178986863123403
-1.0478075471593182
-1.0796869938129494
-1.1165730471174986
-1.161807202505388
-1.1979805942498665
-1.222027076174419
-1.2369839859796639
-1.2434477521704481
-1.2615452163286638
-1.2973663527542427
-1.342964275003885
-1.3800171280424929
-1.401189095177168
-1.419590275645085
-1.4428383318454792
-1.4651244085018564
-1.4760626951283728
-1.4930370892287985
-1.5004749266588815
-1.5270517461934017
-1.5672659042866641
-1.5979170650480152
-1.611673490667797
-1.618902987343218
-1.6232603355103092
-1.6436586074941206
-1.6672749676333527
-1.6849489042233126
-1.7009472600762474
-1.6972608465636436
-1.7190484482817463
-1.737621260757911
-1.7432106662949118
-1.728489747710238
-1.711460074912267
-1.7165319608360787
-1.748280945361375
-1.777410565194316
-1.7972064264990442
-1.7954617450661037
-1.783467274374239
-1.7667162166047023
-1.7656549069679837
-1.7744865951177258
-1.7797860288732208
-1.7849120236533107
-1.7776608006584815
-1.7775653425079156
-1.7815774157097923
-1.7784099529807105
-1.759217549461721
-1.7438399736591628
-1.7383853180765916
-1.7498775377876914
-1.7584871441199414
-1.7614738297736527
-1.7557925053935122
-1.7301592077746566
-1.7010596383291263
-1.687115955864338
-1.6907773409203208
-1.679095088460901
-1.6639789332271204
-1.6463532833764407
-1.6463677719343675
-1.6454173900252038
-1.6416810819610523
-1.6217421223048252
-1.5904935095791084
-1.5674760726903978
-1.5578885332850374
-1.5486204547723288
-1.5271719779294386
-1.5020993421788282
-1.4746352618151328
-1.4518106753445907
-1.4418773796918507
-1.4256232490058252
-1.4100798854922838
-1.38702123752517
-1.3653102494310934
-1.3492326946163882
-1.3278166662572646
-1.3074843840884414
-1.2784848983157393
-1.2444943247754308
-1.2186487929150234
-1.2037092216458944
-1.1841272242639849
-1.1568659721669434
-1.130484714352658
-1.097674624356059
-1.0666899782919654
-1.054024374110531
-1.0432145065660159
-1.0284776315634336
-0.982059741554845
-0.9497497464675192
-0.9239340879997491
-0.900661118995535
-0.8649935512296373
-0.8267118339823256
-0.7907139013094265
-0.7750194357087604
-0.7607240860883563
-0.7374678756225812
-0.705266136394358
-0.6616929006418981
-0.6183593790690948
-0.5945056525589755
-0.5761096053688963
-0.540909804114293
-0.505399692090284
-0.47508696527614075
-0.4539534367092894
-0.43804672887236223
-0.40174819446294074
-0.3566682404043833
-0.31014494768561235
-0.2759245650005861
-0.2570727013353224
-0.2407866477768751
-0.21975637203179635
-0.19094388355102984
-0.15741417036217625
-0.12833519311641226
-0.1070767502062863
-0.08175060028533683
-0.04382504328989459
-0.003077615747510511
0.024916357789422968
0.04563759947821199
0.06304125349682847
0.07101249036469796
0.08815442724212214
0.11994864495203346
0.14624374877861054
0.15940001698477094
0.17313896219304895
0.19538434819892775
0.23039829358660172
0.2723729748110975
0.29810685764520134
0.3094215448766185
0.31668329274270157
0.34032879939885485
0.36783804845441986
0.3906583271982952
0.4017629715443484
0.40694218283024935
0.4254133439958773
0.46022077716253357
0.5012873167368416
0.522362739236833
0.5341211096524252
0.537776894814775
0.5400376649539987
0.5473061085003325
0.5617129896697138
0.5710469627813003
0.574692930827934
0.5848526742704239
0.6039632215255278
0.6259174774757004
0.6366745375279829
0.6350103738279463
0.6282456345525697
0.6194290427049949
0.6241210389055132
0.6423193221330766
0.6563227485968878
0.6667398749780854
0.6699073276126648
0.677419859076984
0.6743238163164852
0.6786227844339126
0.6860441397376044
0.6892639487325422
0.7047607959071576
0.7157513935381451
0.7262033961587907
0.7202494965933053
0.7177260260195862
0.707343534413625
0.7110749479606822
0.7222086638267186
0.7251837626408323
0.7251902498908561
0.713686294498635
0.7065428704368417
0.7104764666327831
0.7059602832273094
0.6991009450125031
0.6834938538086257
0.6786729869237523
0.6806754346496791
0.6815714549475465
0.6807552848742052
0.6806729370094904
0.6730901240057017
0.6659460848352255
0.6650441519209751
0.6545216896067935
0.6368256780013657
0.6214218945934799
0.6138092529940329
0.6170455850444506
0.6122175791408585
0.6136742217398552
0.6031128479375136
0.5771836540379347
0.5563392513016118
0.5482158034449632
0.5747920097177742
0.5875554117415931
0.5920065093107479
0.5838809109739522
0.5872939746926249
0.6050001875857245
0.6324303912624599
0.6515886348621094
0.6865907735930031
0.7420227193938811
0.8114848374631815
0.894375586002571
0.978497554500852
1.0388368312886302
1.0882190876091902
1.1492351154662017
1.2279973084160816
1.3132241863128244
1.3914982493280403
1.4606928890466921
1.5351600563645658
1.609111399035158
1.6697400156471272
1.6969152947541684
1.7120080561244844
1.71411270146451
1.7087319834057537
1.6882469438688315
1.6371045820734944
1.5592819949473111
1.4645543014986344
1.3465233239949252
1.2308324150218977
1.1226794230996917
0.9970516601456756
0.8509077716077187
0.685478617903807
0.504131170829754
0.3337295109891709
0.16909622194280627
0.007189988217717011
-0.1596078655642686
-0.31511376261115065
-0.4422286640683902
-0.5348392014990572
-0.6130755380657563
-0.6766223270444816
-0.7416427310518854
-0.7889017088828245
-0.8125911637943645
-0.8242969898554379
-0.8377412174610627
-0.8495571158082337
-0.8466129679273605
-0.8185235173541053
-0.7906069442387262
-0.7701772091599363
-0.7834680722420108
-0.803616007593736
-0.8238979239635873
-0.8104318087917425
-0.7955548211397865
-0.7737647047220114
-0.758173864950606
-0.7631154142365916
-0.7733223024218339
-0.7970246650855838
-0.8101060671745391
-0.8174400945044925
-0.8162714981992197
-0.8166617272816858
-0.8167712021791861
-0.8138449754651702
-0.8194705927762593
-0.8199076656528203
-0.8273542768399341
-0.8295960526533033
-0.8382209967033323
-0.8397943480224709
-0.8468198291736826
-0.8592898476596629
-0.8793330424540861
-0.8877171860296457
-0.896946532513943
-0.9173893763912208
-0.9368325260519393
-0.9628981514509168
-0.9757444279055655
-0.9720081695029567
-0.9608377890082852
-0.9745738012404677
-0.994595637078916
-1.00960666312633
-1.0147187130989699
-1.0181655480930312
-1.0150593439864766
-1.0176012526640428
-1.035551346798568
-1.0444922783672772
-1.0370956835533598
-1.0310562714741158
-1.029421396551
-1.0324921901989368
-1.0366029347749492
-1.0380881091405225
-1.0271792480391866
-1.0298114749152278
-1.0444559730481198
-1.0622603602128704
-1.0765085628363116
-1.075297046528673
-1.0625906620668772
-1.0484576185761143
-1.034727099318049
-1.0390966790705096
-1.0353215235664581
-1.0285882089516951
-1.0140133504565756
-1.018450134573125
-1.0269454462214997
-1.0318701725331108
-1.0274263756497986
-1.015445280218847
-0.9858572168693844
-0.9682631829434655
-0.9571713405894731
-0.9559396484316388
-0.9450395184826462
-0.9333222193834654
-0.9180432899291072
-0.9135473125882057
-0.9097665410636533
-0.8905303303205471
-0.8659117956889956
-0.8514771267338638
-0.8560793013882876
-0.8525629992502989
-0.8394063472416028
-0.8080691039737612
-0.7796115184011269
-0.7644135850655572
-0.7557667435355482
-0.7457420501123805
-0.7315984775841994
-0.7087642999991348
-0.6848743210764325
-0.6645120155246562
-0.6418857562894749
-0.6139505711228742
-0.5874267559059763
-0.5482841576627489
-0.5212478184442613
-0.5044943423037958
-0.4870458513976725
-0.4722670850709492
-0.45345282532645614
-0.41932072343976456
-0.3881888990955224
-0.36403330746707857
-0.3404547796400263
-0.30891826308038944
-0.2816396054487869
-0.25740795011544254
-0.24721893409900175
-0.23765582605489766
-0.2095041093483001
-0.17589612296729706
-0.13989421312968284
-0.11432594456136042
-0.10011793842874556
-0.0792772536177641
-0.05242571264171912
-0.014082167601398169
0.0262816606006423
0.06895891657123997
0.10813944313247989
0.14411607250647887
0.17290928809253742
0.20732307343576753
0.23422291573384035
0.2578681274444114
0.2834333654543641
0.32860460871832736
0.3765849620788094
0.41759603542661905
0.44521606389964574
0.4603469570944092
0.47670713416918337
0.5019117865815493
0.5356419416648616
0.5711702550236651
0.6136704466062558
0.6548892635761057
0.689319816484903
0.7248820867298669
0.7594258326339939
0.7880543683599317
0.8110586572162524
0.8391049906370972
0.8776719806311726
0.930102138811803
0.9777666687968116
1.0179049611409994
1.0492822146603011
1.0779874300999441
1.1119405890808878
1.1447193326318996
1.1784457557201584
1.213716228974993
1.2438034206241204
1.2699141622140357
1.298443042149936
1.3193062555824462
1.3331005992537561
1.3422539219481047
1.3745222334709797
1.4228737528964426
1.4714272747773858
1.5064378346988498
1.5193482887556224
1.5391359799728406
1.5581595572730353
1.5815944425594042
1.6033254231756648
1.6175426315618806
1.6394922395344027
1.674045278841443
1.7111202913760346
1.7513165377561484
1.783942689502992
1.7998334369145088
1.797452639421403
1.8036440193356853
1.809853323307333
1.8401783750417455
1.8637889783815718
1.8843379707169927
1.9070042567466376
1.9256762144056028
1.9284445300197466
1.9183528911217145
1.9076000065604264
1.9041126975669493
1.91368200362284
1.9323342591833736
1.954570342349392
1.966347065577575
1.9545370526416996
1.9417166593624233
1.9327634760931165
1.9465926765285921
1.9535998051424455
1.9534758561630248
1.9584236340137666
1.9617265700689177
1.9636870845215157
1.956673889148701
1.9412953197714462
1.9260941820793014
1.9162569396236098
1.9136137163592277
1.9154176703383123
1.9079366955260524
1.88842473888841
1.8632908590842792
1.8462682849225003
1.8282038580793831
1.808489221075466
1.7892628319864123
1.7622882071678496
1.733671651070848
1.7021960981083497
1.6779356988568146
1.6550968326181048
1.623919235690607
1.5853235437924347
1.5564041195545524
1.5383875495813482
1.5212099999706072
1.4993853863501383
1.46590222843413
1.412833961757398
1.3746712509883081
1.3346387399750772
1.3009843373971437
1.2764634975892806
1.2632217312054421
1.2417387573806966
1.214465972705574
1.1829396599623427
1.1410675258835992
1.089776239586159
1.0406733131533692
1.0017047097817857
0.974713580776521
0.9496422736013074
0.916128297589872
0.8711332464063345
0.8311490776241656
0.7977153472301028
0.7632171884982799
0.7105801475362905
0.6486684058703394
0.5955011291643377
0.5538398868438625
0.521258830148567
0.4809899691731446
0.43060793706155975
0.37623199540290353
0.32672803945467926
0.2830280887038679
0.23843543487981922
0.2012062621941594
0.1722731655076393
0.13242854018625383
0.07833311676823537
0.02831393706076998
-0.01028747153762174
-0.0578987497262364
-0.10138012818565198
-0.1263710964405359
-0.15421442916208775
-0.1873330657837355
-0.2199106215740477
-0.26718648530184114
-0.3233441424855953
-0.37737935833667996
-0.43385087525654237
-0.46588622176803085
-0.48780912661791564
-0.5130278422849501
-0.5491526415419374
-0.5842637565181361
-0.6235302485060522
-0.6742573184227282
-0.7205582739693245
-0.7618043423737397
-0.7879069518396612
-0.8052561008583716
-0.8220728257511124
-0.8517659403740372
-0.8876040031201237
-0.9240763287265419
-0.9541465847029874
-0.9832900312688283
-1.0041654880995408
-1.0292671606183623
-1.0567470490482849
-1.0859779737843316
-1.1203000001121337
-1.1450491331841133
-1.1809598303929276
-1.2231335801433296
-1.2620947554378006
-1.296607224112192
-1.3196371292025009
-1.3293385559450417
-1.3488887561388292
-1.3794939551916605
-1.4104595471532424
-1.439940790026857
-1.458769485027497
-1.4815800148185239
-1.505002821282427
-1.5259738428076495
-1.5383777932951637
-1.5409822557202881
-1.5487285041900318
-1.562215795412337
-1.5820437618577554
-1.606371161109716
-1.6272539963513493
-1.6352228798182549
-1.6455265540739774
-1.6694471249641605
-1.697821580551122
-1.7196563827200837
-1.7297564009071476
-1.7357435312472977
-1.7458504146270695
-1.7673946549203983
-1.7973189508926826
-1.8212756281908158
-1.834682486277819
-1.8363145010482138
-1.8432565280716595
-1.8561153891299935
-1.861461131487548
-1.864478845306686
-1.8663870355454018
-1.8589447942925557
-1.8644273890418444
-1.8764257749905289
-1.8833436962998906
-1.8842658581603402
-1.878582583149114
-1.8812476683897257
-1.8788357541635972
-1.8798932534099213
-1.8609255336007147
-1.8515357614284957
-1.8505066828131533
-1.8584524361849561
-1.8683586779590058
-1.8649722652442142
-1.847382882117869
-1.8329900791049467
-1.8291236538475846
-1.830602389751069
-1.8200392087581585
-1.8029342396280477
-1.7805158261358542
-1.7619468081225662
-1.7481511867814994
-1.7458513481247113
-1.7330852984021075
-1.7116936887127645
-1.6835175503874698
-1.6601633172837966
-1.6520171612419638
-1.6413911552013862
-1.6307380964517026
-1.6151873549915017
-1.5941408376318071
-1.5731039229002308
-1.5548358952836796
-1.5338571079884804
-1.50682431761724
-1.4774131898530871
-1.4489945187269502
-1.425244531765953
-1.4089242520394891
-1.3872319451840138
-1.3577414680138093
-1.3052103148795287
-1.2662729247963918
-1.247353396434752
-1.2353459783893457
-1.2067697735503506
-1.1628618016176915
-1.1155397594057872
-1.0834349671975763
-1.060461170975191
-1.0359549039220168
-1.0129849049149766
-0.9799724920921256
-0.9598218539688289
-0.9409545211556191
-0.9270499716912024
-0.8964597181825934
-0.8574407418806117
-0.8133675657338236
-0.78378808696572
-0.7650582927714443
-0.7483465213327961
-0.7187179791753429
-0.6777163595502749
-0.6458050885498805
-0.6196453121775161
-0.5910156289569554
-0.5562719507557035
-0.5114649773347264
-0.4694289861882987
-0.43872597796202095
-0.4166270511212087
-0.3924691200055922
-0.35436836169094144
-0.3121069922138857
-0.2736361552001473
-0.24721201170373444
-0.23102038677193387
-0.21256644512599776
-0.192171782293024
-0.15856184239468998
-0.12365382433245031
-0.10150082858773017
-0.07564003225380664
-0.044866253306186724
-0.019875212936314446
0.019153317899893448
0.04138372359966422
0.05259949892187569
0.07353709913606125
0.10113098924339567
0.13994483886225806
0.17135065709773373
0.18984250150705528
0.20822415694540738
0.23929971318625673
0.27054552773265184
0.30317034830446776
0.3158016175795291
0.31971892448167755
0.3310847088174662
0.3492781087914
0.38771583909893537
0.43387660859656035
0.4572352112052067
0.44801748931217994
0.4382561818756923
0.4508296834734515
0.49305374786078615
0.5398978479682723
0.5684679378363612
0.5863860711698932
0.5973076455074801
0.6122122195178292
0.6271270428791842
0.6335024015793194
0.6386571490966142
0.6541827359430198
0.6706151669251316
0.696800275199031
0.7235800213891175
0.7390503517966256
0.7334437130438095
0.7305602390229948
0.7224641191538617
0.7183087427016538
0.7119900393593117
0.717849865347636
0.7215456999118571
0.7377253461440754
0.7508264408332892
0.7526107825001758
0.7385024431364854
0.7295590808016734
0.7328015064821962
0.7457910383261601
0.7572398126187657
0.7592170664546813
0.7444027195445184
0.7369082429528322
0.7422308812957359
0.7557980486645596
0.7550332379195637
0.7405522318840517
0.7257877549845902
0.7256986532270902
0.7357140449912276
0.7396674014517091
0.7299369130547676
0.7223981841665085
0.7310961829655706
0.7468842341958687
0.7679397282664558
0.7848114139604683
0.7929308350270657
0.8069547095632762
0.8305543644891156
0.8551950997019852
0.9107922686111857
0.9717228666359189
1.0318941839740636
1.0983354976246686
1.1823485060572823
1.2741792773610034
1.352172955920407
1.418171984414063
1.483478866469694
1.5630581724537818
1.6447156584046854
1.7406698170045811
1.8277410665773246
1.8967872018595584
1.9450744565663165
1.9973333385750636
2.030689960956587
2.042410921956151
2.02945776688785
1.9988623227629074
1.93995738841646
1.8497047697633964
1.7421551429477191
1.6161013871367462
1.4819324055804972
1.3393566445849578
1.204255914616025
1.0543674079553793
0.8918409071158042
0.7154694751413664
0.5335060476940751
0.36335826748773387
0.2148048323589334
0.07565310064832546
-0.058050358583685936
-0.17927335930257196
-0.27762703546938283
-0.3497411923313334
-0.3946869569843449
-0.4222160293930527
-0.44696270414149125
-0.47593243465251633
-0.5051451119803309
-0.5086494145955127
-0.4900943750236155
-0.4631993290337415
-0.4407682650723992
-0.43041763100333075
-0.42450615475638975
-0.4208855375942706
-0.4094735457795256
-0.40673677558528454
-0.396490171292631
-0.39794707706883303
-0.4010259258667664
-0.4072413041283103
-0.41444609964345597
-0.43208936484835025
-0.45283670666771225
-0.462335320690126
-0.46515235444688124
-0.4667706400732003
-0.4751144847846794
-0.4889537034822296
-0.5073634949488276
-0.5080582879717779
-0.5096438051769013
-0.5227919219309157
-0.5410859553431101
-0.5675693403383483
-0.590027903359167
-0.5965528804770078
-0.5901884638609137
-0.5849647615591462
-0.5933863567394368
-0.6078177236353164
-0.6248958023042047
-0.6348495002780318
-0.6480483670633986
-0.6562476370974702
-0.6634091040835783
-0.6698329502958774
-0.6608669330509881
-0.648407758985322
-0.6501503983515102
-0.6667012990543189
-0.691953730515797
-0.7014918121467083
-0.7014156585282127
-0.6935534637039088
-0.6919399875072374
-0.7002349257691791
-0.717826053025666
-0.7340312359872526
-0.753426476759908
-0.7537342244519116
-0.7566198343267818
-0.7636085638849988
-0.7594423002619454
-0.7401540171135129
-0.7231379591608681
-0.7178545534814336
-0.7276613505697151
-0.7363861074684519
-0.7324342009495703
-0.7179433399268602
-0.6959669625165958
-0.6857320913224035
-0.6759502859462931
-0.6718118422558205
-0.6699629027374642
-0.6701014254521939
-0.6746720238025347
-0.678795777205758
-0.6803404139579211
-0.6658830786812753
-0.6476343447182208
-0.6274296661652503
-0.6217522610056242
-0.6254194058139015
-0.6320279613824362
-0.6391420404723456
-0.63059388879369
-0.6237832401274633
-0.6156644956078106
-0.603497406142322
-0.5827109680742755
-0.5618561195175124
-0.5427705208580664
-0.5282074792365021
-0.5300751872917318
-0.5242734595688747
-0.4995188729109492
-0.472907776812436
-0.4517716442900311
-0.44435756766785495
-0.436941467177507
-0.4234283303496644
-0.38978919230077425
-0.36319143305441925
-0.33784558384398095
-0.32596656733072904
-0.31230527653099277
-0.295649943172232
-0.2702115463198029
-0.2430177653966278
-0.22628404641123376
-0.21666291047813305
-0.20622960655545164
-0.17332739189320304
-0.1350545579851818
-0.10820430974723812
-0.09492237433550198
-0.08423278208460999
-0.06821119094427354
-0.05602211083984654
-0.03119689704642341
-0.014190962380091605
0.010853944980696762
0.05888057320199755
0.09966838388981265
0.1051329159394625
0.1070004926584901
0.11746736584469969
0.13896474936591122
0.16537945234060863
0.1793074692571312
0.1978275578508801
0.21726779832997498
0.2501296136551183
0.2909101724471229
0.3338015083628625
0.36597706695475113
0.37247422441308436
0.3731183076379206
0.3791902822553978
0.40532788581287876
0.44480790221556815
0.48999169519450425
0.5243911262247691
0.5495223881718642
0.5641553225630644
0.5890311530434525
0.6097981009910368
0.637737663272166
0.6655168283039788
0.6925161236184804
0.715980061909832
0.736509973358248
0.7534866517553209
0.7586620576407904
0.7590461083558736
0.7741602669445974
0.7988083723808256
0.8293201581760377
0.8629409412108795
0.89691615335676
0.9181160012093117
0.9295841416358565
0.9477912702988336
0.9608285941652481
0.9802845508339766
0.9994382809366671
1.0195031462579351
1.041997803492524
1.0745441928094062
1.0902816386595755
1.1053767698767003
1.1109734763425951
1.1330037139356073
1.1568136893457552
1.1823973075763208
1.1984578159128838
1.2080410071916927
1.199240134946049
1.2071428181237287
1.2222838963154181
1.2327571192293143
1.2321492346475078
1.2430370912816366
1.2596180952522793
1.2858548563226837
1.307095574085199
1.3166227121626322
1.3095498566710693
1.3102858617820752
1.319742663220339
1.3400530093152356
1.3602280760389367
1.376908154923208
1.3815460537693451
1.379326841521228
1.3809286062058306
1.3823820837377376
1.3965018460220222
1.40070442827589
1.39010567509282
1.375384641226923
1.366305105992588
1.3714104168726047
1.3867326754562075
1.3933514808424514
1.3872993315155913
1.3679656539556917
1.3524391894457761
1.3538418364201927
1.3611882785337892
1.3564747856958494
1.3482465014646932
1.3438281420389235
1.342610538947324
1.336355796263835
1.3079766619808522
1.286769973167989
1.2806717672257344
1.2857171535269767
1.2832938987567233
1.2630292132853713
1.2243155365608425
1.1967560661024133
1.178523011480988
1.1534463944630524
1.1407546647714397
1.1169544674402332
1.0915096166914433
1.063813936082559
1.0350923866514756
1.0032133942574115
0.9721487203344156
0.9437342175276585
0.9246884430528733
0.9079980708829618
0.8875654338566543
0.8606497794742376
0.8248156968103058
0.7757970148176032
0.7361815733030245
0.7068912333741266
0.6934253910113884
0.6768710453372737
0.6480803980844961
0.5988212939975419
0.5690765778459831
0.5377978303622728
0.5129267269242057
0.48684209038848597
0.45161774640587826
0.4155010072780963
0.3949785832576374
0.3735803637682354
0.341549844865603
0.30438852671009015
0.2663774241699121
0.2290512779824574
0.19730169473127093
0.17510494343860614
0.15423113748898798
0.12858661756904924
0.09085721948107793
0.06516008627519951
0.0399090903093354
0.007180102649646831
-0.03362712485392876
-0.06968582032456497
-0.10434243993918009
-0.12171844187348009
-0.13706122114271882
-0.1708057555357158
-0.21195575116735707
-0.24524263369683924
-0.2657730962268267
-0.2848270897536618
-0.30452978378419227
-0.3224289283050558
-0.3549919594894496
-0.38328803070852774
-0.40211831947154675
-0.4169644607662394
-0.44917622367301646
-0.48134838547775205
-0.4979066384965595
-0.5128768964096232
-0.5238065689151643
-0.5337358822114638
-0.5597422846702078
-0.5877771931155571
-0.6077590711623785
-0.6276106638408405
-0.6506773735523533
-0.6732860083584123
-0.698171702416785
-0.7155581779247057
-0.7165846656247695
-0.7250422546977988
-0.7525157965440764
-0.7861776242749423
-0.8199135883696396
-0.840590990429139
-0.8524711614383526
-0.8607309811464171
-0.8757350840608669
-0.9026605219639929
-0.9241028118465637
-0.9406618434698043
-0.9550737130765696
-0.9719055720490428
-0.9975556327127416
-1.033844873852786
-1.0542147883252047
-1.0656742914658508
-1.064857096365941
-1.0728096353514263
-1.0879968636405417
-1.1189540806655978
-1.1406494623723318
-1.163449584016998
-1.175444723204132
-1.1808986669939447
-1.199028088684309
-1.2167031939888475
-1.2217098563204218
-1.2207538942124758
-1.2168794469317201
-1.222285580106191
-1.2448993758658715
-1.263353050976908
-1.2690956491968612
-1.2703600890494786
-1.2772104678390621
-1.2948286087788614
-1.3021530645345496
-1.312300238454562
-1.307871071759417
-1.3071701505160236
-1.3205682363603417
-1.3382959841628024
-1.3469224322294555
-1.3498005354045504
-1.3502835250197522
-1.3556919553142621
-1.3684641491695493
-1.3785272723283721
-1.3733675225153212
-1.3712922622624963
-1.3799286483819428
-1.3931720629337614
-1.3936273728458888
-1.3837349620336972
-1.3729541329039827
-1.3591485217324881
-1.355134772953497
-1.3584719822765243
-1.3703814417371771
-1.3691979683398545
-1.3622466215997284
-1.3519702600886403
-1.343558471007856
-1.320534998205292
-1.3247089173384583
-1.2993238578456805
-1.288020468550363
-1.2715773389809868
-1.2695283318525326
-1.2617371933543693
-1.2451567833246628
-1.2219279451454932
-1.196633090121317
-1.1799580819366067
-1.1825890919274775
-1.167608080949558
-1.1380729011283017
-1.107111892377108
-1.0741216218369796
-1.0671837259570665
-1.0753200190856858
-1.078397891764156
-1.0623881653397353
-1.027604331796718
-1.0045707222913767
-0.9868879290789087
-0.9739548033846116
-0.9636446795104024
-0.9504744275583227
-0.9307921205522292
-0.9137626873356115
-0.8978708066639286
-0.8800756167991916
-0.8567261817136015
-0.8278336858300618
-0.7976817427154655
-0.7702490319496541
-0.7608052650882282
-0.7510530776094653
-0.7309345529819918
-0.6919177587770192
-0.6529350983071973
-0.6210180307402848
-0.5937383214244661
-0.562259606377743
-0.5357499575488184
-0.5194105602357866
-0.5111189768809253
-0.507532282567735
-0.49096529956664137
-0.458380519276798
-0.41559010827286774
-0.3702372856143474
-0.33789945775118985
-0.3256097237862142
-0.29889989421799995
-0.2803662437980286
-0.255986256059925
-0.23920161738390378
-0.21293834860916103
-0.17965256977492988
-0.13905401883802004
-0.10397421482108271
-0.09395814852216577
-0.08674428565558401
-0.06525875975680522
-0.03165259220856705
0.010397431982034201
0.04226185852672324
0.06331554592093061
0.07873138844361771
0.09520812521855289
0.11883424936801763
0.1453229882626935
0.17771142779398708
0.20164279195322873
0.2219853107293878
0.24025059972446083
0.2585607122979542
0.2881925490067021
0.3099074363568079
0.3236917521881193
0.34143316283589803
0.36983183123325475
0.39666835365322306
0.4265071556303378
0.44560342761690364
0.4533343205385595
0.46402989712326853
0.47401616734663343
0.5040319412800423
0.5238550196284821
0.5368307338531236
0.5560696958055525
0.5824764901604055
0.6084115678035089
0.6338645824645618
0.6402108825203228
0.6304922626316344
0.6315530707229599
0.6568110416753212
0.6949664890974715
0.7167157691158197
0.7174732883781908
0.7173715100351685
0.732271029711246
0.7441603369630679
0.7481500226717771
0.7424025980653723
0.7412542573777015
0.7617879677224788
0.7948435437919367
0.8218012957192106
0.8313656767104315
0.8247529585173736
0.8166067064896811
0.8145522534710142
0.8228585887703754
0.8284011318425203
0.8278207217702096
0.830575191175527
0.8415454104290654
0.8665281182975545
0.8737861218780091
0.8733891584622329
0.8561824654086998
0.8441377116669249
0.8357298673948542
0.8443870058701457
0.8530218872519235
0.8494301883972923
0.8333091169072169
0.8248018106830609
0.8327609926304473
0.847425197568774
0.8651365002449568
0.8770496986782566
0.88500048411539
0.8862475808131123
0.9021575160093289
0.9367032437641617
0.9621217554157073
0.9869641218763836
1.0286313458613638
1.104524800370887
1.2033614517807691
1.2928027842355914
1.352716924889365
1.3922674396333203
1.4431998704153326
1.5088804847064796
1.5926758852718141
1.6723198031051172
1.7514846505834814
1.823772970640516
1.894383588187379
1.946849473245723
2.0049846365170723
2.033097732095641
2.0302856111498464
2.014870299265809
2.001512201852101
1.9850367667839455
1.9444015191533062
1.86009001069978
1.7446275267719191
1.6224407052342675
1.488356154295761
1.353679173934388
1.209574887912344
1.0450725065588073
0.873003675468594
0.6906371926986897
0.5306402439962487
0.3673951459945396
0.20335881129880462
0.04465016586252257
-0.08735388933405742
-0.12062025853351148
-0.2580623470062571
-0.3241986006918885
-0.37973902882123817
-0.4258879304456386
-0.45866187887884097
-0.4746877183926626
-0.4901223186578478
-0.4884707118844959
-0.4898567780497172
-0.4738184952937634
-0.44094969627657177
-0.41412070766138565
-0.40185950225705946
-0.40811673884960886
-0.41609244375872206
-0.4157001656649155
-0.4105856009533314
-0.4080564182819141
-0.4236596265837138
-0.45249681301397604
-0.48173559688276396
-0.4961024689279352
-0.5019902170196526
-0.5094536642580014
-0.529158107616356
-0.5443048696957861
-0.5533533105470606
-0.5529320368129167
-0.5479090976251713
-0.5697014235818352
-0.5944927184404029
-0.622879486157198
-0.6380645097141646
-0.6525459050101209
-0.6589868276251948
-0.672937483352409
-0.6824842059935
-0.6888353674419687
-0.6953357282257141
-0.7025839309753016
-0.7252161517649667
-0.7635264921711021
-0.7991947864402354
-0.8038310089917595
-0.8073304842644708
-0.8179227185542113
-0.8407859929896202
-0.8618740404977833
-0.8735492528952132
-0.8721414293908358
-0.8661870253007968
-0.8688002284049396
-0.8866873063346772
-0.9024474962735746
-0.9075299822832339
-0.911388614203235
-0.9152383961967391
-0.9166328477770708
-0.9372333084144353
-0.9523176376582685
-0.9505910205687005
-0.9479180423246809
-0.9516193032918161
-0.9616920496781729
-0.9653173464780443
-0.9631035943505009
-0.955354458787093
-0.9466462283517252
-0.9516258012599067
-0.9623588700255854
-0.9559588504068562
-0.9309005827252262
-0.9134286316192466
-0.9053754115752326
-0.911320172718627
-0.92088988440138
-0.9169984767635663
-0.9020903542163365
-0.8819670639726667
-0.8758574797131641
-0.8746112684695269
-0.8760971176885219
-0.8800150602878594
-0.8613477985305126
-0.8356643315722722
-0.8215856211988009
-0.8127101291395512
-0.7977541847656877
-0.7782510952902767
-0.7548190686606133
-0.7402829659301875
-0.7416700234866559
-0.7373230605504585
-0.7150451176304872
-0.6836954221879179
-0.6475561810551632
-0.6295245175885347
-0.619540905405839
-0.5983914194341776
-0.5608996724453654
-0.5150113360773417
-0.49277979074749106
-0.4948275153881588
-0.49461827956737875
-0.4723295795631085
-0.43438268794231727
-0.38872491536938614
-0.35551010234915953
-0.34573760944927867
-0.333177849950833
-0.3019767970363709
-0.26588087534792154
-0.23833155031807635
-0.21354557500013205
-0.18573988128232838
-0.15981207063494954
-0.14035474669197412
-0.10998934728792663
-0.07788612227978539
-0.04650199350522477
-0.01768368779058157
0.010078687622107849
0.05141668428625724
0.0889202637380602
0.1179959097220753
0.13405003797524292
0.16208925070891825
0.20087658744486822
0.24063065044037113
0.26943391534526107
0.2973401568976474
0.32860515809797575
0.3690104922959065
0.40724894699595976
0.43598037790099325
0.4429821616333581
0.4526505791378122
0.47046222344262634
0.5009782819399387
0.5466239177743425
0.5942613649195785
0.6350251531711546
0.6609653892003882
0.6842726670537851
0.703100476263578
0.7412356415882456
0.7708935719173564
0.7996880589511559
0.8327917989782807
0.8683590445203179
0.9152247282238785
0.9639145417532666
0.9985460734317769
1.016664031785298
1.034733082599816
1.052434469765465
1.0874539389745754
1.1281823863013232
1.152025295131056
1.1745330456582277
1.2054582916388956
1.2270898093371723
1.2485704781062423
1.27080421408317
1.2882869195510198
1.3089417042967906
1.3336733621781287
1.3636921486692308
1.3901384431485166
1.4099509263798988
1.4252562713540085
1.4354350621649188
1.4493280849541712
1.4763867748686712
1.505312219396618
1.5257213204598699
1.539132455816453
1.5488952964699383
1.5626320672372442
1.5693507631377561
1.564773196183193
1.5675083272516142
1.5802973096546207
1.5961166343881898
1.6134359898224016
1.6252326057414979
1.6391316270501546
1.648416185135243
1.6472852565996836
1.6458063646024157
1.6513009928082854
1.6552228279084744
1.653298131902653
1.6650557998352775
1.684086742901964
1.6981842600340156
1.6948368657686896
1.6813686613768868
1.6724278900802603
1.6750342347975344
1.6998696310802057
1.7081809199273275
1.6966135348670275
1.6752401842473876
1.6608473911136483
1.6519126035218339
1.652101292441749
1.6434131187295367
1.6301245600794576
1.620784635126534
1.6135673560737565
1.6060367536071285
1.5917901439222835
1.56930768180921
1.5370698415446058
1.5130874700878603
1.4906539945195538
1.481067418758809
1.4770114595790957
1.459879312924809
1.4299842067736086
1.391606694775516
1.3639803080063735
1.3358231327378514
1.3080598061421036
1.2785636522429173
1.2571093761835317
1.251946142876489
1.2395870119660313
1.2075309329530377
1.1621968244423933
1.1179379096264976
1.0704930367253096
1.0342158449312349
1.0082023129405957
0.9738494944710925
0.9421548701265692
0.9076376094805579
0.870004721717651
0.835676833928486
0.7976478112838332
0.7467755642256834
0.6971100847921585
0.6642272808943133
0.6350184101977568
0.6033934596623979
0.5583800087374079
0.507315165474891
0.4563155008037153
0.4237039556404061
0.3991187742444808
0.3715879548209312
0.33654785637374035
0.29767413392377495
0.26657657365513027
0.23106274102471036
0.1938929319220302
0.1578274644180381
0.11769258513851391
0.06495781907323214
0.04174877869333545
0.008103793687189787
-0.029860090924055536
-0.0632794382474978
-0.10739825649599455
-0.14633456095219388
-0.180074583100227
-0.19578800501108837
-0.2233665686881911
-0.2518110222249544
-0.2814130002687158
-0.3130745302737661
-0.34373068178166316
-0.3654341014782274
-0.38580054906844147
-0.40878400277928056
-0.435592137050965
-0.4601089713153771
-0.4832372623338345
-0.5074056812879572
-0.5344327194722964
-0.5572874507524536
-0.5835866381224699
-0.6029429234500588
-0.6211424342496207
-0.6445817739139079
-0.6775216123693087
-0.714457762108868
-0.7376799257473569
-0.7599937025244897
-0.7823037481705851
-0.8134489944501999
-0.8482313382086777
-0.8780961459688278
-0.886249743439027
-0.8757338777256808
-0.8773598071165716
-0.8975264310069857
-0.9240182793150814
-0.9485871453348131
-0.9663417745986044
-0.9730014535090888
-0.9832054415908775
-0.9987766300294336
-1.0136040587827295
-1.020051219333303
-1.022382971887796
-1.03249334739356
-1.059225049142348
-1.0979941113921943
-1.1323156869335922
-1.1496722208481485
-1.1592125670670836
-1.1761889747978669
-1.193577474267527
-1.2171709507674473
-1.2445233018740358
-1.2643391239861288
-1.278750185427797
-1.3054515271308904
-1.320331917782962
-1.3319322002133622
-1.3359768753722863
-1.3315474316857199
-1.3351195741973334
-1.3579815948781895
-1.377854756855323
-1.3840565531040416
-1.3805522775061272
-1.367340437723368
-1.3648653269464401
-1.3679382925130197
-1.3725915646865563
-1.3718060554236144
-1.3738207865762997
-1.3890111309311366
-1.4173773674595116
-1.436948707937627
-1.4394866826400547
-1.4207201097045787
-1.4026215657778884
-1.3888544394211033
-1.3962041162548697
-1.402396103291911
-1.4007191577626836
-1.387818998709001
-1.388416034365677
-1.3863398425918882
-1.384645128187118
-1.3732650618846325
-1.3598321505515463
-1.3565564768642124
-1.358864695705352
-1.3630991464549158
-1.3515651495318415
-1.327624076447176
-1.2964684460406057
-1.2846519794626223
-1.2842458375844246
-1.2885420051340732
-1.2856449872610964
-1.27433997843376
-1.256769087436464
-1.241177748466003
-1.2300135886977426
-1.218095481954174
-1.1996321598538682
-1.1837852232865649
-1.1775803381648027
-1.1813298745321419
-1.1785627168294146
-1.1628780899955675
-1.1287908411361058
-1.0897357080392625
-1.0490773856490747
-1.025133409111416
-1.02432032028483
-1.0161307771621708
-1.0133898820664495
-0.994440103050049
-0.980040873332265
-0.9586050842173681
-0.9225127827547212
-0.8797071397508986
-0.8533892886842638
-0.8466200916720245
-0.8410995068881763
-0.8298184002774598
-0.8045470981791047
-0.7829943702113881
-0.7508275656404193
-0.7312484409210127
-0.7279287675164542
-0.7207381276879954
-0.7026679263294044
-0.6825778013313883
-0.6632243043106971
-0.6488898254611636
-0.6240215885878992
-0.5916814487025367
-0.5579828730163929
-0.5241568508311852
-0.5021149044366253
-0.4894261982691566
-0.47328457788572736
-0.4561417670108127
-0.43098963385657085
-0.40302634514825
-0.3771449186885274
-0.35671259069574573
-0.3328903113130363
-0.30507827002829674
-0.27908494871694667
-0.2659064890031536
-0.25945021586872613
-0.2478254484226326
-0.21822601040422213
-0.18714078463795877
-0.15030793548665755
-0.1208595493800617
-0.09728012948894282
-0.07713866380070886
-0.06654849302374176
-0.05636504850720613
-0.02767867714368693
-0.0006397824282998954
0.01985915317402343
0.06005174419845745
0.08910728796063805
0.10854181507506822
0.11132703437214718
0.10996479503887045
0.13038394727631308
0.16799771560194374
0.20052030313592126
0.20597116751752104
0.2111950123934996
0.22442205962861506
0.2569342110259578
0.2910235505784955
0.31874730687249986
0.3321628276712417
0.3333977696074828
0.3459409164717184
0.3706995522471372
0.40278310814566154
0.43058769456862356
0.45410553385916486
0.4776011919227244
0.5019826526571135
0.5196136495944014
0.5307921555773368
0.5370369285465731
0.5441390862784595
0.5523970805328786
0.5718745579458151
0.591884647488298
0.6157778792508235
0.6203562856656659
0.6227028215709264
0.6258633933193155
0.6328840907660392
0.652609175994532
0.6584848699747446
0.6563042438353877
0.6521657200888384
0.6552194895746035
0.6767520424718967
0.6926518405387113
0.6922344644176985
0.6907540593212075
0.6998030931310805
0.7151060723189073
0.722927844308821
0.7296738436201694
0.724355763631526
0.7149052600064585
0.7220708093679881
0.745545266704943
0.7603039811362087
0.7642093137906932
0.7609218385459009
0.7641725435971706
0.7684677457875283
0.7738068214499046
0.783851264593125
0.7848688441724516
0.7847937209862231
0.7741663325582488
0.7706863386500701
0.7798473487930123
0.7967678657719199
0.8125995863468175
0.829174945082164
0.8635844719261356
0.895689761524403
0.9297652187467107
0.9633720287007123
0.996818028375453
1.0417021067059729
1.1172523182881644
1.2167585956984017
1.3115397918784713
1.3903089524931225
1.4628352009262315
1.5428549365553867
1.632508818687189
1.7205108223897811
1.8056453381472801
1.8738803836905273
1.9426153900113516
2.0127715261614685
2.089237226857369
2.1390616601503747
2.157063513861415
2.1545401785952465
2.137296430171731
2.097405183948795
2.031516921586181
1.9332307594290616
1.8263565756613316
1.7276858343123103
1.6283769956501228
1.5101288422265928
1.366236319292351
1.2058627315111679
1.0412231388181312
0.8830069953648925
0.7251202878847229
0.5806940761330409
0.4448553157827085
0.318223955230696
0.21118513146213752
0.11795080735931178
0.03822592522032274
-0.037744298549282726
-0.10567727721039584
-0.1554923017932631
-0.1722260175680601
-0.17021003062073006
-0.16377582610072478
-0.1468092440953615
-0.13882921560046932
-0.1294491656648333
-0.11316493478946013
-0.09545792776454197
-0.07601147590442651
-0.07129247248883583
-0.08373050600336068
-0.09439409447217001
-0.09045483564970482
-0.09082061435618997
-0.09792077815320659
-0.12242387336108553
-0.14021049252875253
-0.14760672618153037
-0.14673662592317285
-0.15132019704551308
-0.16988976165530814
-0.1871753789182502
-0.20560622507130932
-0.2123536274321504
-0.21045710119640237
-0.21363668471612798
-0.21913395958445495
-0.22419054404838987
-0.21872432828397928
-0.22408444023880103
-0.23629202168354987
-0.2596075224330018
-0.28944190668986824
-0.3099154028772867
-0.3191855546606764
-0.32181829912332705
-0.3422148886917055
-0.3474071377335516
-0.38590393553911717
-0.4265682749942663
-0.4523005064311292
-0.46431054475654776
-0.47784567617643153
-0.5011347213009915
-0.5225714414127578
-0.5384838464217439
-0.5424537011156857
-0.5576631903352833
-0.582271794641195
-0.6031483688390336
-0.6083825918043303
-0.6037634592535608
-0.6057606754222822
-0.6134502008931124
-0.640555760047602
-0.6684546450307814
-0.6666232510726707
-0.6606871280262959
-0.6600987400614594
-0.6770572148646097
-0.7030112480406111
-0.7095745798617945
-0.7043697599533943
-0.7008175938689183
-0.7160010478709515
-0.7450320525601061
-0.7625772932332266
-0.7716833592584923
-0.766852732475622
-0.7581512066221445
-0.7626634909097565
-0.7806909556353288
-0.7954464786267005
-0.7974670211434391
-0.79865086029654
-0.7931974761527886
-0.7835459128674797
-0.7727458524752722
-0.7629318316077303
-0.7525768293922136
-0.7352716409327352
-0.728409651872119
-0.7313803097302023
-0.7389960402610213
-0.7356942627784931
-0.7214757494896558
-0.7140407264532291
-0.7082029724936604
-0.6993869206462789
-0.6772193581039282
-0.6697772138305529
-0.6581435546827179
-0.6783300750546986
-0.700434862469135
-0.7009646426522489
-0.6811442077853642
-0.6476915143527443
-0.6231930248911683
-0.6137570476843988
-0.6059621632032566
-0.5897440085761647
-0.5754840758731982
-0.5598321079697545
-0.53760722473385
-0.5201073492662661
-0.5042883318142892
-0.4837496038289146
-0.4612456175833572
-0.4395311275032727
-0.41983540018011684
-0.40003126701513536
-0.3737196481197175
-0.3390791049963589
-0.31076696457198755
-0.2875726554161403
-0.2798818463205777
-0.27763493927241595
-0.271688064519818
-0.24313257407146144
-0.2063221944508952
-0.1740851045010884
-0.1470434283251628
-0.11758027153305448
-0.07563770024870009
-0.056626407465264234
-0.0440805730083041
-0.04259041634830968
-0.03233377275228687
-0.014544501750607423
0.026937322427054673
0.07561964533838826
0.09822661263597524
0.12190333885151941
0.13229342577451256
0.15318498873550232
0.18944627714794182
0.22519474038635984
0.2659087242255092
0.28502497757229134
0.30205889350038945
0.33103295910100794
0.3682704785317796
0.3936162110031653
0.41987183947270734
0.4348161205138058
0.4616260107447146
0.5012019739614361
0.548341320051272
0.5853299144048676
0.6164249462546475
0.639780480070866
0.6556867085315644
0.6735885768796049
0.7032362351750678
0.7382065616464161
0.7647527299745691
0.7999488635301503
0.8413391143659827
0.892570874007049
0.9160954239345742
0.9305130779391982
0.9458798746213453
0.9737777730377147
1.0132774329639778
1.0439196096722396
1.054399935874374
1.0590474173426188
1.0807356412852092
1.1151793981112061
1.1471080195989318
1.1643026168608757
1.1719384753460562
1.1834303487104108
1.2216530958576723
1.253027743536862
1.2714397123601815
1.2716901522223694
1.2824529229714468
1.3070741138250717
1.3415763230707713
1.3676400508059912
1.3831194216790945
1.3947184201098028
1.4155496398146337
1.4385856178182597
1.4604610989938696
1.4680461273741363
1.4710978677982869
1.4729655246894786
1.4809656908844036
1.4972276382592618
1.5067921937243256
1.5123996598445206
1.5177061758709436
1.5251476220175324
1.5200714514773166
1.5073555530128124
1.505915425777375
1.5105595381984602
1.5246411467819816
1.5368663551219364
1.5450963746629907
1.5380380976805987
1.527895915036819
1.517109587986665
1.5014058212715884
1.4932953653899295
1.4970501308016193
1.5056516170870453
1.5117765710048294
1.5062712008814287
1.4949348200814683
1.4823465173613724
1.4660671702489816
1.455254030622249
1.438924379283171
1.4302033120846662
1.414141864507639
1.3876925970571652
1.3664230503894954
1.353694869988093
1.3330348744213603
1.3004817107602031
1.276486980282174
1.2491560038265372
1.2285657916484678
1.2083152376101245
1.1853603298992879
1.163676032230252
1.1283179206689238
1.0918060661678122
1.0587267990670453
1.0251223891323775
0.9931385831541693
0.9673627129584692
0.9410916170446686
0.9298989211699215
0.9154861148699431
0.8734518456480649
0.8099107704773508
0.7624090198542423
0.7385876018425563
0.7177081800466565
0.6707934379086442
0.6344751022677985
0.5935084299719505
0.564690417235461
0.5330819453598348
0.4849647447273177
0.4343900583676357
0.39235776006306167
0.36773181653144676
0.3452689627814008
0.32467880852856296
0.28827717000383773
0.23882554751449916
0.20593941583868233
0.18658256883965077
0.17314156774244388
0.1500690022653366
0.11249806690208497
0.082415879887446
0.06227958513411708
0.04813809952264188
0.029632102439151518
-0.014278174909425881
-0.04665259994352258
-0.07083175348005064
-0.095343867374566
-0.12261402033557348
-0.14987961997784713
-0.18475342835465525
-0.2223367858285654
-0.23820100702975233
-0.2588786943931752
-0.2697062875460369
-0.2993526059380646
-0.33498516987653826
-0.3753675559854941
-0.40461589205579646
-0.42881772594462697
-0.4525349346751896
-0.48460172041851174
-0.51981519106152
-0.5413766272768574
-0.5520175221417849
-0.5611829901867018
-0.570994547697442
-0.6021884803159258
-0.6459010216127948
-0.6767901198608108
-0.6896543056667103
-0.70339974376315
-0.7253368543681266
-0.7484339072184807
-0.7684058305663981
-0.7843245335768972
-0.7912951424868916
-0.8115820382225699
-0.839680575848195
-0.8578801068359893
-0.8728828448906215
-0.8755231282682334
-0.8895925714141646
-0.9227097693265347
-0.9593016892156899
-0.9850162489976194
-0.9928254661999314
-1.006217407365099
-1.0160286620853012
-1.03872936485739
-1.0602742832167598
-1.0705855809356053
-1.0724023798713793
-1.0797549782595433
-1.097824482237921
-1.125078909495712
-1.1319121916548172
-1.133271580416702
-1.137391248135335
-1.147012918945347
-1.1697612143013476
-1.1900691966014316
-1.1887084288678051
-1.174830477551296
-1.172845155987582
-1.1900738667593582
-1.202102058832621
-1.1994682727659791
-1.1962085411584584
-1.205138658831346
-1.2268685247589037
-1.2568207559320093
-1.2675315713249793
-1.2632739215543838
-1.2477108288331762
-1.2190128706976804
-1.2156317513604618
-1.2329923958453444
-1.2454642626652486
-1.241759571108822
-1.2398859988297943
-1.239237005066918
-1.2501920712278187
-1.2513946952757729
-1.2315589180735755
-1.2077787484870008
-1.1904350859699395
-1.1825854015445192
-1.1781327899358434
-1.184712751120092
-1.1766989829504253
-1.1699668787926012
-1.1538434759790608
-1.1365758660719838
-1.1114587443891266
-1.1032182913517115
-1.0795165907251818
-1.0543998987648708
-1.0413044353126193
-1.035662418851743
-1.0313805457091096
-1.006192439195885
-0.9768920873074072
-0.951119004416899
-0.9340716808995029
-0.9333900896888074
-0.9194852479411311
-0.904269755083321
-0.8935532681902879
-0.8858218649580988
-0.8624730062107278
-0.8543397872970211
-0.8351910819852952
-0.8148044662591919
-0.7965493648044742
-0.7825747137546171
-0.7664851799826504
-0.744937124007302
-0.7188592195503888
-0.6934524444302567
-0.6675095709640197
-0.6434853429466753
-0.6265809949965588
-0.6070451283110826
-0.5900791027418082
-0.5601336403435416
-0.5239359751614784
-0.4863824287259482
-0.4606085870318521
-0.436252947181417
-0.4255356388233957
-0.4003960409627228
-0.3934997915531478
-0.3990627028483318
-0.39726332496498257
-0.3579048229067888
-0.31060111365272836
-0.2800835403984289
-0.2709430061414169
-0.2700712223987925
-0.26771654453084137
-0.24863440588250482
-0.2235184966133057
-0.20367271163373576
-0.19185642792190657
-0.16946789608985366
-0.14567453473062705
-0.11682702105126164
-0.0887357557640704
-0.0614129979382285
-0.060198887698381325
-0.06252372174265747
-0.034831962306857235
0.008217281330421163
0.034265975026003044
0.04330293976474092
0.042640971122891565
0.05576640286760827
0.08694088276977185
0.126083892820969
0.15518105504780708
0.1650677804427487
0.17923153229345637
0.18881335694433807
0.20356913362049628
0.2247105921369276
0.2409382742614239
0.2562108390954056
0.2708253233955701
0.2951492173779003
0.3221563242662915
0.3402433642192162
0.35306519263640546
0.362140845233961
0.37234636960641654
0.3888632562137687
0.40131026860997365
0.4063250751097442
0.40695393639461414
0.4324869223570606
0.44935202406632985
0.46090154504919084
0.4588921145776435
0.45430556129199007
0.4572085415757525
0.4895691405656281
0.5217841839728031
0.5419499125325878
0.5235153233255352
0.5092003873094014
0.524026259328593
0.5496820762697281
0.5599231862093849
0.554748748745394
0.5356840040421701
0.5314134724173443
0.5486506505387445
0.5730534810119358
0.5985194372896852
0.6027729489596562
0.5873409867603104
0.5665674023845781
0.5529653822445154
0.547147258410524
0.551861734708424
0.5573463400010985
0.5684864116793945
0.5807076768057028
0.5830278199893993
0.5833845235030438
0.5778145905679197
0.5608292845562936
0.5513526830159265
0.552135771574386
0.5521976967081608
0.5472712905941399
0.52179879419977
0.5136251695225563
0.5227561050419316
0.5235642969329523
0.5194125748592525
0.4962700090601833
0.47886082174554084
0.4647504360340671
0.46523652939179644
0.473002369573022
0.49415831039532643
0.5036888413111812
0.5113665273690933
0.5324569164685199
0.5755122472973645
0.6237568569496439
0.6674338335437674
0.7141803535774521
0.7646151034745697
0.8233239311935576
0.8890948112098137
0.9512559525988507
1.0241585515978513
1.110863083981114
1.1964258415564641
1.271396027098801
1.3424962487381633
1.4045480555520196
1.4535936892209698
1.4991023642328993
1.558477433063136
1.6045693493648165
1.6407443223683373
1.6520591660030102
1.6479832948350306
1.6291365882169175
1.5848481272293953
1.5346575621244658
1.4453123601967823
1.3320799758932416
1.2209083578726045
1.116994756399475
0.9983774175877749
0.8601833655952629
0.6938777106725236
0.512591687829677
0.3404421511769167
0.1774384958670253
0.04067886910103573
-0.08691623703279086
-0.19953960227891748
-0.299318155757619
-0.38807373746001084
-0.46488184561550017
-0.537057298828166
-0.5978777681221454
-0.6342127101729687
-0.6341523004415844
-0.6120303240979152
-0.5904199078573704
-0.5705332797903868
-0.556024031318042
-0.5395602060799022
-0.5150305897957971
-0.49799024323236946
-0.4905674326831506
-0.48939771932861054
-0.4725022047292142
-0.4337702925364716
-0.39791239211584284
-0.3731605622503073
-0.3622541715188622
-0.37983385884088133
-0.3969029336431676
-0.396060823522869
-0.3779113768522837
-0.36838663674330474
-0.3629030836254505
-0.37213521064301935
-0.3731903806054834
-0.3617907014462952
-0.363258685524929
-0.36446720543696753
-0.38036375548778684
-0.3926338647263995
-0.39242310005126574
-0.40078259683192874
-0.4027551143011542
-0.41756118239561696
-0.44000892869451264
-0.45727772277811995
-0.4699740206747371
-0.4701600502274238
-0.46515606975918017
-0.47723521132886826
-0.49327255032493167
-0.502584593037184
-0.5063891486410068
-0.5141434433923809
-0.5227934340082887
-0.5396605942653344
-0.5452127418003305
-0.5309035251939733
-0.5101580812570014
-0.5098286342631216
-0.5326601652965294
-0.5603419832691275
-0.562967596144557
-0.5496907981475255
-0.5311913388437484
-0.523641965364886
-0.5319247779695526
-0.5545137436172922
-0.5611982226077442
-0.5681516279084755
-0.5607266636182552
-0.5587589552011389
-0.546380902436126
-0.53152732359199
-0.5224383531421876
-0.5236923974158838
-0.5334597188307322
-0.5499107347634732
-0.5526014295953016
-0.5397025262565349
-0.526778856088235
-0.5159684845445174
-0.49781365254793375
-0.4823868047842053
-0.47762442999119886
-0.4731537300272791
-0.4793527341379277
-0.4837128239392503
-0.48776274754512283
-0.4750271164309799
-0.44520400511484376
-0.40409476320823323
-0.38404954304227185
-0.3942266814114564
-0.4117431401966217
-0.4250068206377206
-0.41784838934101204
-0.39759573472770865
-0.3676098210900465
-0.3462044303379921
-0.3434542162161149
-0.34502137309692243
-0.3408404066873151
-0.3266439178480181
-0.3097605865879156
-0.2953830980708232
-0.28565266916430776
-0.2732507461748484
-0.2548259177123173
-0.22397529810063216
-0.18985911188107032
-0.18330383491653887
-0.17044271724190918
-0.1595207856159847
-0.13131900993749818
-0.10201667533170984
-0.08138484974583608
-0.0712605961225209
-0.06280055594404105
-0.05234911928288776
-0.023739307693611864
-0.010544831953621648
0.005232085783679925
0.028772554169535773
0.029554228054650515
0.024964371312759037
0.02994892821632508
0.037482467569851
0.05823861510322444
0.08214025395469374
0.1091803995607113
0.13965717281644893
0.16623971618252834
0.17854555319625373
0.18724800597441063
0.19447595328375958
0.2133438907299729
0.24323420334945034
0.26033729601196054
0.27837786970309797
0.3043671361802798
0.3358564058518522
0.36276803301172217
0.387230633291287
0.38970664168444535
0.3985681464529596
0.40892508801863975
0.4381638637339544
0.4707138850680906
0.48978392425506156
0.493230288854167
0.49721871009452295
0.524323216288816
0.5611092906759033
0.5962785184530944
0.607851988790386
0.6104696565874349
0.6169405434364953
0.6477026120912621
0.6874904529831934
0.7131045880952348
0.7233168749517254
0.7391756665073027
0.7496878401481807
0.7777327461567393
0.816284364928368
0.8351247672340435
0.8330259907418024
0.8432428717044486
0.868209416494367
0.9079184200342652
0.933983110494855
0.9436499688705986
0.9420996169331849
0.9543479493327224
0.9837447634316505
1.011058290898774
1.0338404739067648
1.0520845819042712
1.0724974149184536
1.0892744058679449
1.1060709389435635
1.1128104089260196
1.1158947828066264
1.1198951736274403
1.1318240438725156
1.1452670365780293
1.1641852367232284
1.1812490163948057
1.1872979098629746
1.1954480321471717
1.1977597661231623
1.2158938536596389
1.216277709519213
1.2135537004693424
1.215040546146958
1.223479736700777
1.2422232076731774
1.2547878137735187
1.2504885331856213
1.2393911714032744
1.24956595000506
1.2883325510101094
1.3111340901112443
1.3103378521673332
1.3112682512655582
1.3172785457142842
1.321651970155082
1.328047268007718
1.3327995793874767
1.3310235871470495
1.3269888630605375
1.3216084272686384
1.3280017660235388
1.337927547279162
1.343754938609847
1.3329707810402984
1.314423107035479
1.2990962421960297
1.2900406215688356
1.2829831063495984
1.2657166718931345
1.2452593968424215
1.2405306935627864
1.2347467939156365
1.2211943246685986
1.1968220091581132
1.1665128693243907
1.1336243556411054
1.120739035391789
1.1129053632449994
1.1128711279614132
1.0873757943329856
1.0431346362929492
0.999069436903531
0.9734918888776598
0.9590807087538692
0.9595004964582972
0.9244032618259134
0.8742377019968397
0.8340300990781575
0.8162955197900283
0.8018129148967681
0.7811264925434326
0.7402033319285184
0.699493499135634
0.6632739589885467
0.6397889469497056
0.6275178965746806
0.6078516671042605
0.5774392011895654
0.5298780945917977
0.4999623827072111
0.469388978154584
0.4448779013220422
0.41148323399112313
0.38385951986978206
0.3482819031533765
0.32550850068798487
0.3066973971159153
0.27842952940495397
0.2452903139803029
0.20881380040754355
0.17663738336270982
0.15395739940750058
0.14688585269531418
0.13254501052979314
0.0987378303263008
0.04730468486711872
0.016704988231070955
0.00389696011560477
-0.01643747724593565
-0.044593343968287395
-0.06774373579602266
-0.09259164413408977
-0.11576971641149687
-0.13146918961166648
-0.1671432822898778
-0.20508181041030124
-0.25351280972894635
-0.2715338806192991
-0.2789687695284092
-0.2892328001219807
-0.31604633629496826
-0.35054800118318524
-0.38753819840464726
-0.41479861755421144
-0.4213314834848246
-0.4306216924911523
-0.44967557356764865
-0.4745137236240571
-0.4965793142747622
-0.5134185989138546
-0.5350892197061291
-0.5557805988968169
-0.575785260942175
-0.5926492819782374
-0.6088012257936711
-0.6266696364887334
-0.6502088314840766
-0.6867298517563521
-0.7169950679229435
-0.743127861152059
-0.7696928869801988
-0.7893536965211312
-0.8167451883602831
-0.8478877144436525
-0.8717830596693922
-0.8820104215120558
-0.8901533326099658
-0.9093211820932159
-0.9437738800473783
-0.9791568363007304
-1.0191198269198924
-1.0407640572274273
-1.0401105858156272
-1.0305745465359226
-1.0454064134995396
-1.0742193203745527
-1.0895377406565911
-1.1017257834085643
-1.1223683421810937
-1.1578628023260695
-1.2008746481684411
-1.2224033844338447
-1.2166406455912537
-1.2131764894429429
-1.23336193110492
-1.2570468202099996
-1.2820854934302912
-1.308163452237066
-1.3374076841406852
-1.3621803832791641
-1.3681305286957721
-1.375084949839253
-1.3805942592017557
-1.3840402739992244
-1.3915185368979437
-1.4112609647717334
-1.4344109538335637
-1.4490606146181353
-1.443912663511478
-1.4308620577922218
-1.416616385470312
-1.429549700183689
-1.4391410370345665
-1.4539298644718994
-1.4565176147237902
-1.4487309473373549
-1.433007166938497
-1.4416893142795597
-1.4521924807690154
-1.44589914324443
-1.4459986547796806
-1.4433340590538835
-1.449499438531624
-1.4470993008757187
-1.4565779987065974
-1.4660335861228033
-1.4553252361784874
-1.4455087020735564
-1.44604413087274
-1.4447258788202206
-1.4507096715491679
-1.4487390316739717
-1.4412569670495916
-1.426739813196246
-1.4234994917124952
-1.3985818929449025
-1.3757925089427712
-1.367341230032093
-1.3677392009491016
-1.3669205775456805
-1.351157997004654
-1.336324706331034
-1.320290044266952
-1.307332011753795
-1.292574254713388
-1.2833470624442425
-1.2698922778799475
-1.25191196713182
-1.2352116874989112
-1.2185787262381904
-1.206293540184717
-1.1943976797142764
-1.194190885484749
-1.1751666957670512
-1.139165630586874
-1.1255628583859172
-1.111176643648829
-1.091134987765836
-1.062091979765
-1.0307721907591072
-0.9996282814726536
-0.9753853962426812
-0.9574451845102033
-0.939411579802996
-0.9188558217187838
-0.8826689052279154
-0.86351564710765
-0.8586628748528141
-0.8528662055683153
-0.8137926806402468
-0.7655636321442546
-0.7164324285398267
-0.7027270966043117
-0.708899137891074
-0.7004804927232602
-0.6713828903618635
-0.6420668969195166
-0.6204817901075549
-0.5993191354030103
-0.5721861057535511
-0.5311642146468234
-0.4878651500698559
-0.4575625924900585
-0.44057761832938275
-0.4299076187524447
-0.4154984896498954
-0.38149820695296627
-0.34440146076821354
-0.30605544293850956
-0.2777672518765114
-0.25985835257858303
-0.23128922273910538
-0.20336700157329277
-0.18007504889353443
-0.15135947700415667
-0.11906749826637966
-0.09328552853044327
-0.0685369182766664
-0.0396501140365887
-0.006641162216750066
0.013995486778728264
0.01095314723457083
0.012290510164274716
0.04423543778631877
0.09243001519234575
0.1281740761662401
0.1487059581051344
0.1637755974169454
0.18954139657382316
0.21012043254222257
0.2239723544611846
0.2255899641529477
0.2402871416494489
0.2701860382173698
0.31466261529978506
0.348680495799864
0.37222643255146626
0.3849822734324716
0.3963951564065324
0.4119454462349214
0.45267680101164187
0.4969111637547022
0.5299893870116613
0.5448815551663743
0.5427973065462862
0.5466127558734521
0.563031014306913
0.5828873537596693
0.594270971541965
0.5993086406473522
0.6163008163200683
0.6373047976169418
0.6510215200955404
0.6733112771519979
0.7032510950573105
0.6996376371835452
0.698167556854252
0.6942571541705344
0.6967500398910276
0.7050303528986184
0.7132949642684692
0.7203185098627211
0.734946222458934
0.7574793482736666
0.7696049635636946
0.7661323212994693
0.7559083247960428
0.7514421862794425
0.7731776286412766
0.7896820841488171
0.8000391275215949
0.7874645889029379
0.767521384870345
0.7652327318112805
0.766562157898434
0.7629664473232269
0.75688846826773
0.7553488714936315
0.76628420303379
0.7887818734651053
0.7941604122044588
0.7772358673722318
0.7581527460983297
0.7350846524284392
0.728482071718718
0.74170709401431
0.7573715243848677
0.7718196374672637
0.7743774865022282
0.7757325141979232
0.7880983326804593
0.7995815172099572
0.816293288246338
0.8388524047251384
0.8788636445011658
0.931758811238143
0.990833957098967
1.0316863610644167
1.0860625537000639
1.1823526645438283
1.2723526972461847
1.35180159850459
1.4188798769773026
1.4848900956490791
1.5562525913319745
1.6238249657078294
1.6964693637870314
1.7589407775074923
1.8268153247399284
1.8723370511582087
1.8894163950488652
1.884475463068082
1.8834666351102312
1.8821319380267507
1.8420359925970808
1.7522077488949899
1.6361590906194536
1.5103834515165218
1.3956466196705277
1.2739595679392788
1.1493047173156752
1.0073551815912443
0.8542297153315267
0.6890285589462803
0.5227531714028403
0.37006697601050154
0.2373942202912119
0.1070517927889836
-0.01911331473912039
-0.14322111945519253
-0.25518532931019383
-0.35193825500286907
-0.44109270697835024
-0.5104262909460088
-0.5687724778619045
-0.6066553418676569
-0.6030030287347107
-0.588925612419457
-0.595228075149779
-0.6093831592802544
-0.5901789215457542
-0.5678102908955456
-0.5553835038701003
-0.5595966155597627
-0.5526650516547775
-0.5382355644108893
-0.5141570697887514
-0.49902933005630734
-0.505959448279544
-0.518149305606788
-0.5117823575738476
-0.5033230027278623
-0.4958089324736379
-0.5066204413850787
-0.5262842200990796
-0.5392240506817203
-0.5338310013479324
-0.5274863216271183
-0.5571015787073048
-0.5985571762398425
-0.6341420935606416
-0.6522487360762964
-0.653781242858105
-0.6491039221744045
-0.6537690581666452
-0.6702074881152876
-0.6968833234983091
-0.7212753415393145
-0.7323884344856815
-0.7524899594569797
-0.7678390694215422
-0.7897181494967611
-0.8065231483166619
-0.8097019408690206
-0.8160308051917482
-0.8239769531151921
-0.847570978337686
-0.8703281293696314
-0.8696608852203995
-0.8443431023647211
-0.8312936609701004
-0.8448501932342504
-0.885618642992454
-0.910567866237108
-0.9209148935438027
-0.9197080866282825
-0.9228127969073521
-0.9366348937782959
-0.9538485648144133
-0.9494292728330792
-0.9426006583633372
-0.9403804653292084
-0.9555848125011965
-0.9876032916452234
-1.011413308605155
-1.015114411904378
-1.0026747052983243
-0.9917947455620174
-0.9901052819388734
-0.9902847389929772
-0.9874531715832019
-0.9813083617823789
-0.963309214900908
-0.9392573853477912
-0.9317385299527035
-0.9422828164613983
-0.9461772474772038
-0.9354928148056912
-0.9245773233892757
-0.9122158988736919
-0.8843773966934817
-0.8624292271764955
-0.8393595042100296
-0.8212784124998822
-0.8115500293143597
-0.806214960804289
-0.7936851783183565
-0.7730534410486307
-0.7623325323543994
-0.7459682218852337
-0.730072703585836
-0.7140449728176287
-0.7076596195641972
-0.6855984045260815
-0.6738097264423688
-0.6588769388393199
-0.6499652446229909
-0.6425079863439289
-0.6282768240542568
-0.59385594113645
-0.5584815231521014
-0.5484085481675817
-0.549611418926917
-0.5358584124664916
-0.5025841156255669
-0.46963583059168224
-0.4449598644338796
-0.4258221487707833
-0.4210847031602998
-0.40177016681385924
-0.3654499494511242
-0.33044623627341063
-0.30073890595835595
-0.2760357077312336
-0.25421350954324473
-0.2355904891978843
-0.21865392513063867
-0.19853440161860247
-0.17310894292193105
-0.15612276205211947
-0.1378239787665186
-0.10327304008846211
-0.07781112776609483
-0.05016054626816147
-0.01697765891550792
0.007687248840159327
0.01954896476369595
0.0210357866541439
0.05516197493231668
0.08254942697351376
0.11111947644478096
0.15001417070789527
0.18426823470489473
0.20135775122619134
0.21347664086392812
0.2407530258688756
0.26303440680432183
0.2925150728038674
0.3258264350837165
0.3531917484593023
0.37307366150892024
0.3799679368510709
0.388205715654237
0.4237142806017271
0.46725783088746725
0.5066193617019219
0.5259201694133225
0.5376613583947251
0.5555648594116367
