Time,Modified_Signal
0.0,0.00040245222564333223
0.00025,0.00032863960354254925
0.0005,0.00022929438802736908
0.00075,0.00012291004059533642
0.001,2.7875599516395793e-05
0.00125,-4.7285154765828556e-05
0.0015,-9.814521577806163e-05
0.00175,-0.00012487460333547264
0.002,-0.0001310144020722021
0.00225,-0.0001217171945852144
0.0025,-0.00010321666136600185
0.00275,-8.096062897539784e-05
0.003,-5.895789380474013e-05
0.00325,-3.8842486583739906e-05
0.0035,-2.1398102385547144e-05
0.00375,-6.338570073630662e-06
0.004,6.472712420819612e-06
0.00425,1.6385354175384682e-05
0.0045,2.275538286731587e-05
0.00475,2.5352162203847647e-05
0.005,2.4472435013156538e-05
0.00525,2.110404246706105e-05
0.0055,1.6704322171114268e-05
0.00575,1.280036367259343e-05
0.006,1.0951716187524386e-05
0.00625,1.2211837390146833e-05
0.0065,1.6808350644867782e-05
0.00675,2.427211536295203e-05
0.007,3.359614808195332e-05
0.00725,4.3570755573430256e-05
0.0075,5.3240489510698196e-05
0.00775,6.261650815038776e-05
0.008,7.113555932709213e-05
0.00825,7.957891091304298e-05
0.0085,8.928256346933722e-05
0.00875,0.00010103061416919323
0.009,0.00011425472311727051
0.00925,0.00012846071386149468
0.0095,0.00014275367766190505
0.00975,0.00015501109156536885
0.01,0.0001630736071935086
0.01025,0.00016568301542745903
0.0105,0.0001624831463579005
0.01075,0.00015428195088640475
0.011,0.00014258212254582655
0.01125,0.00013041733761066444
0.0115,0.00011980422429317306
0.01175,0.0001139130967066097
0.012,0.00011324581209746774
0.01225,0.00011789135912510274
0.0125,0.00012724188470732145
0.01275,0.0001382064176335613
0.013,0.00014910503928372082
0.01325,0.00015647383531121832
0.0135,0.00015879342011510631
0.01375,0.00015559704112039197
0.014,0.00014681317966599246
0.01425,0.00013411479012157815
0.0145,0.00011960367649114698
0.01475,0.00010457639138080053
0.015,9.021935278264577e-05
0.01525,7.771756256355321e-05
0.0155,6.626300114863712e-05
0.01575,5.502052043125304e-05
0.016,4.3751891265227726e-05
0.01625,3.105801031560992e-05
0.0165,1.72842696167641e-05
0.01675,3.7888048465003505e-06
0.017,-8.011045597602042e-06
0.01725,-1.626665638047312e-05
0.0175,-1.9477856311574834e-05
0.01775,-1.6937275663063364e-05
0.018,-9.129595894889243e-06
0.01825,2.3416585312874262e-06
0.0185,1.495118157853191e-05
0.01875,2.5689400274019138e-05
0.019,3.185186954636329e-05
0.01925,3.1585338754922717e-05
0.0195,2.432798727480535e-05
0.01975,1.1027788318186934e-05
0.02,-6.216873043618672e-06
0.02025,-2.4398362569276993e-05
0.0205,-4.054764356913444e-05
0.02075,-5.2154295222185974e-05
0.021,-5.770459639846982e-05
0.02125,-5.7058440362835425e-05
0.0215,-5.107948454617286e-05
0.02175,-4.161675132640987e-05
0.022,-3.072282212097478e-05
0.02225,-2.0216151691883197e-05
0.0225,-1.1333702254714036e-05
0.02275,-4.556160805839419e-06
0.023,3.7632665113413075e-07
0.02325,4.105298457871866e-06
0.0235,7.313830755499067e-06
0.02375,1.0415853529259636e-05
0.024,1.3165431234914934e-05
0.02425,1.4962507014027218e-05
0.0245,1.4903670103600687e-05
0.02475,1.2216465392226773e-05
0.025,6.522469891372599e-06
0.02525,-1.6046131068705847e-06
0.0255,-1.0790623410405038e-05
0.02575,-1.8904337524940923e-05
0.026,-2.349682895744804e-05
0.02625,-2.235270878335099e-05
0.0265,-1.4178451222846756e-05
0.02675,1.241843921105898e-06
0.027,2.2838747027344233e-05
0.02725,4.8355411377030877e-05
0.0275,7.47753022512728e-05
0.02775,9.880632436290671e-05
0.028,0.00011754445489035071
0.02825,0.00012951663629977728
0.0285,0.00013430727545812388
0.02875,0.00013164677920528175
0.029,0.0001236802734762417
0.02925,0.00011179012254528918
0.0295,9.819503767792418e-05
0.02975,8.495100069692472e-05
0.03,7.265138256480971e-05
0.03025,6.165348940275576e-05
0.0305,5.248119782989849e-05
0.03075,4.4228761556148544e-05
0.031,3.6930873108706984e-05
0.03125,3.1117774291199564e-05
0.0315,2.650292948555558e-05
0.03175,2.4179706118777477e-05
0.032,2.4653156974478788e-05
0.03225,2.7769785642369044e-05
0.0325,3.312134916062296e-05
0.03275,3.953718713742673e-05
0.033,4.5162175194179855e-05
0.03325,4.795147917983243e-05
0.0335,4.593231531816833e-05
0.03375,3.77023825376847e-05
0.034,2.274909397926481e-05
0.03425,1.6065756124853525e-06
0.0345,-2.4460483942965474e-05
0.03475,-5.3552964737236134e-05
0.035,-8.270797152387397e-05
0.03525,-0.00010762039736896904
0.0355,-0.00012419689058103877
0.03575,-0.00012684313184184405
0.036,-0.00011176117320162793
0.03625,-7.529539694975309e-05
0.0365,-1.3604746583495933e-05
0.03675,7.232994003045435e-05
0.037,0.00017688242896226442
0.03725,0.00028889229062158367
0.0375,0.00039313991800088313
0.03775,0.0004688675239585315
0.038,0.0005029004993183705
0.03825,0.00048240841389702725
0.0385,0.00041104683247108423
0.03875,0.0003071857043742238
0.039,0.0001894109327332046
0.03925,7.57618370204959e-05
0.0395,-2.1146522213279005e-05
0.03975,-9.420337563586611e-05
0.04,-0.00014066510323878777
0.04025,-0.00016051491814105982
0.0405,-0.00015966731302472723
0.04075,-0.00014339566763763847
0.041,-0.0001170107281648621
0.04125,-8.438976372024431e-05
0.0415,-5.0573707738771483e-05
0.04175,-1.990810270555523e-05
0.042,5.380753809281008e-06
0.04225,2.4518515042299064e-05
0.0425,3.672233700058775e-05
0.04275,4.1967570378802064e-05
0.043,4.09537270995678e-05
0.04325,3.5174030750792347e-05
0.0435,2.6462535515508458e-05
0.04375,1.6738982516645907e-05
0.044,7.74145365136788e-06
0.04425,9.895544710387021e-07
0.0445,-2.75511082215358e-06
0.04475,-3.2290375013847544e-06
0.045,-6.516892592729898e-07
0.04525,4.621978899637537e-06
0.0455,1.2794232988319008e-05
0.04575,2.3539623200980732e-05
0.046,3.7069993567299534e-05
0.04625,5.330178407977205e-05
0.0465,7.301799810719575e-05
0.04675,9.48465174950452e-05
0.047,0.00011782350394069767
0.04725,0.00014049837530310958
0.0475,0.00016004807869664852
0.04775,0.00017447361551555527
0.048,0.0001822859140527158
0.04825,0.00018288539953503552
0.0485,0.00017656190048448124
0.04875,0.00016551919161185568
0.049,0.00015166721946804107
0.04925,0.00013868971295080183
0.0495,0.0001293290503435383
0.04975,0.00012508197956511834
0.05,0.00012755313254121358
0.05025,0.00013543669118298098
0.0505,0.00014745819619782009
0.05075,0.00016101072156918922
0.051,0.00017374242767810417
0.05125,0.00018273581720232114
0.0515,0.00018656512852980467
0.05175,0.0001853925848827477
0.052,0.00017929285735270657
0.05225,0.00016948686660961564
0.0525,0.0001578036846338981
0.05275,0.00014538921794390473
0.053,0.00013292436820018391
0.05325,0.00012030439768154762
0.0535,0.0001073702723879361
0.05375,9.3091846682602e-05
0.054,7.700168390056247e-05
0.05425,5.9568025259901304e-05
0.0545,4.055012485998037e-05
0.05475,2.306151378704727e-05
0.055,7.95256809021882e-06
0.05525,-1.647845193377412e-06
0.0555,-4.627971671577688e-06
0.05575,-2.036490121255276e-07
0.056,1.0728947114649996e-05
0.05625,2.6067827231252648e-05
0.0565,4.263528587046187e-05
0.05675,5.683402194877607e-05
0.057,6.543297354741926e-05
0.05725,6.615214041137313e-05
0.0575,5.8265726575977564e-05
0.05775,4.271366683002497e-05
0.058,2.183041894686819e-05
0.05825,-1.009744103484924e-06
0.0585,-2.229331110480336e-05
0.05875,-3.891335808971902e-05
0.059,-4.891500606231221e-05
0.05925,-5.1661147716947024e-05
0.0595,-4.790472452164756e-05
0.05975,-3.9533619158576564e-05
0.06,-2.8881982048166145e-05
0.06025,-1.8107648923762803e-05
0.0605,-8.961371866988385e-06
0.06075,-2.1354067014365404e-06
0.061,2.5435988394892117e-06
0.06125,5.838290540758514e-06
0.0615,8.828528073064418e-06
0.06175,1.2321569845228231e-05
0.062,1.6605019110472337e-05
0.06225,2.1201240391716643e-05
0.0625,2.5009752312438587e-05
0.06275,2.6584280604194884e-05
0.063,2.459197003909208e-05
0.06325,1.845293950032248e-05
0.0635,8.491191108872194e-06
0.06375,-3.8681947212688435e-06
0.064,-1.6364452964278514e-05
0.06425,-2.6221215811054952e-05
0.0645,-3.070909161387342e-05
0.06475,-2.7738371738782393e-05
0.065,-1.6399700956496704e-05
0.06525,2.729093852480968e-06
0.0655,2.8197186612856273e-05
0.06575,5.7241245416557386e-05
0.066,8.62908051864126e-05
0.06625,0.00011198625284078002
0.0665,0.0001319906893079116
0.06675,0.00014420045769775652
0.067,0.00014839188291085936
0.06725,0.0001459562791372331
0.0675,0.00013803103927394027
0.06775,0.0001268916294779617
0.068,0.00011431248604145848
0.06825,0.00010236157648938117
0.0685,9.15974465204292e-05
0.06875,8.273347551144739e-05
0.069,7.503048300914252e-05
0.06925,6.880218666735312e-05
0.0695,6.317009930937077e-05
0.06975,5.822961553140925e-05
0.07,5.4286351225859386e-05
0.07025,5.1338268617222794e-05
0.0705,4.934479171199164e-05
0.07075,4.8810935889398445e-05
0.071,4.968679535028889e-05
0.07125,5.12980880168698e-05
0.0715,5.28389202753245e-05
0.07175,5.3372868803241484e-05
0.072,5.179270523218817e-05
0.07225,4.697236906147393e-05
0.0725,3.762186577548018e-05
0.07275,2.3395032226271567e-05
0.073,4.433486098525046e-06
0.07325,-1.8215212347675452e-05
0.0735,-4.345629914925464e-05
0.07375,-6.90941572820098e-05
0.074,-8.988366662659333e-05
0.07425,-9.947584527496435e-05
0.0745,-9.271030518603811e-05
0.07475,-6.574721894093735e-05
0.075,-1.5457825749870077e-05
0.07525,6.0358546368311834e-05
0.0755,0.00016113232870157838
0.07575,0.000272902734043524
0.076,0.00037882576359713
0.07625,0.0004632806460609046
0.0765,0.0005096090512105322
0.07675,0.0005036650762774228
0.077,0.00044325937838111793
0.07725,0.00034374154211333735
0.0775,0.0002282542638709469
0.07775,0.00011239967517375049
0.078,1.0160976760835787e-05
0.07825,-6.854196120060837e-05
0.0785,-0.0001187435714652747
0.07875,-0.00014211755371807663
0.079,-0.00014268697221850028
0.07925,-0.00012578968008695107
0.0795,-9.697440970177905e-05
0.07975,-6.444211335870909e-05
0.08,-3.409474229916023e-05
0.08025,-8.218650437147412e-06
0.0805,1.2192185711535483e-05
0.08075,2.6629570223173704e-05
0.081,3.5523021341868924e-05
0.08125,4.0070277968758967e-05
0.0815,4.143650165699448e-05
0.08175,4.035698422214584e-05
0.082,3.787724242784043e-05
0.08225,3.4736458494444214e-05
0.0825,3.166624723702238e-05
0.08275,2.896474688950586e-05
0.083,2.692319328915114e-05
0.08325,2.5429422238535155e-05
0.0835,2.4899044226668372e-05
0.08375,2.6093782053976543e-05
0.084,2.931497429717419e-05
0.08425,3.550869064445494e-05
0.0845,4.5487937752227656e-05
0.08475,5.9920135459212785e-05
0.085,7.878140160207239e-05
0.08525,0.00010117304693487895
0.0855,0.0001260735841872342
0.08575,0.00015107704901706033
0.086,0.0001738457575378411
0.08625,0.00019176791084779811
0.0865,0.0002034870233825392
0.08675,0.00020731871673800698
0.087,0.0002042250002647561
0.08725,0.00019540264696826676
0.0875,0.00018266200087269498
0.08775,0.00016893536425470392
0.088,0.00015762958120122775
0.08825,0.00015079253451713364
0.0885,0.00014916910957220788
0.08875,0.0001535809197269965
0.089,0.00016242914185574326
0.08925,0.0001738021045884273
0.0895,0.00018518644504424462
0.08975,0.00019427536435843003
0.09,0.00019920607183982598
0.09025,0.00019916291001125425
0.0905,0.00019489017228540984
0.09075,0.00018660673840185468
0.091,0.00017580433715929294
0.09125,0.00016427043701932464
0.0915,0.00015213486584503028
0.09175,0.0001405728360812806
0.092,0.00012896823393929624
0.09225,0.0001166452530258258
0.0925,0.00010245031286147022
0.09275,8.599662744077864e-05
0.093,6.781599067062582e-05
0.09325,4.8046740940181375e-05
0.0935,2.8785595396010814e-05
0.09375,1.221601842748233e-05
0.094,8.946129131336398e-07
0.09425,-3.8511868176965885e-06
0.0945,-8.173412741197125e-07
0.09475,8.799732892707316e-06
0.095,2.3334552786545017e-05
0.09525,3.974176496328866e-05
0.0955,5.4653239324888046e-05
0.09575,6.474070190841421e-05
0.096,6.762846998210011e-05
0.09625,6.225460998890446e-05
0.0965,4.925482268744708e-05
0.09675,3.057330819236658e-05
0.097,9.2828597592593e-06
0.09725,-1.1170507209929643e-05
0.0975,-2.760031555561169e-05
0.09775,-3.781339637257452e-05
0.098,-4.080395718831833e-05
0.09825,-3.71211094904201e-05
0.0985,-2.8304453401792665e-05
0.09875,-1.658892626298997e-05
0.099,-4.397054813311716e-06
0.09925,6.314109545576742e-06
0.0995,1.4416199665220673e-05
0.09975,1.9619948818387333e-05
0.1,2.2667289624542876e-05
0.10025,2.4481015845394077e-05
0.1005,2.6268494639757945e-05
0.10075,2.8619216839328098e-05
0.101,3.165145941505069e-05
0.10125,3.4665905530173585e-05
0.1015,3.653410204611242e-05
0.10175,3.599798918685943e-05
0.102,3.217081649651512e-05
0.10225,2.4844292610898315e-05
0.1025,1.4895504151762972e-05
0.10275,4.031457210741695e-06
0.103,-5.213003527786572e-06
0.10325,-1.0222794324633055e-05
0.1035,-8.667989875533726e-06
0.10375,5.21839566713631e-07
0.104,1.7641397038495193e-05
0.10425,4.162931087100692e-05
0.1045,6.904194152625612e-05
0.10475,9.734448773373816e-05
0.105,0.00012285755206663005
0.10525,0.0001431503982298944
0.1055,0.00015593050425101974
0.10575,0.0001603660075448925
0.106,0.00015754481002853114
0.10625,0.00014818414249558783
0.1065,0.00013532849072623218
0.10675,0.0001211616301966509
0.107,0.00010750085158942445
0.10725,9.556838163433351e-05
0.1075,8.605118387063319e-05
0.10775,7.937753976464598e-05
0.108,7.432052325881133e-05
0.10825,7.061791494684706e-05
0.1085,6.789117012958932e-05
0.10875,6.532263980519847e-05
0.109,6.372233841845842e-05
0.10925,6.246110743233517e-05
0.1095,6.245128139061571e-05
0.10975,6.270011056770178e-05
0.11,6.322459403250289e-05
0.11025,6.369265284799008e-05
0.1105,6.263414282493314e-05
0.11075,5.9128546518838194e-05
0.111,5.253808305345443e-05
0.11125,4.1649772891489653e-05
0.1115,2.5807895684627638e-05
0.11175,5.086744896992259e-06
0.112,-1.9065730043882058e-05
0.11225,-4.475319132570972e-05
0.1125,-6.941170434380473e-05
0.11275,-8.989813532318922e-05
0.113,-9.890253967417493e-05
0.11325,-9.124201425568419e-05
0.1135,-6.31919921093076e-05
0.11375,-1.2219465922405698e-05
0.114,6.205260754066236e-05
0.11425,0.00015958966606626385
0.1145,0.000273849870160819
0.11475,0.00038000866708950585
0.115,0.0004609064069315054
0.11525,0.0005071214103201407
0.1155,0.0005009266970224316
0.11575,0.0004454810996758539
0.116,0.00034851395961873197
0.11625,0.00023140424890401624
0.1165,0.0001140820265861336
0.11675,1.1138559209743975e-05
0.117,-6.828339020240791e-05
0.11725,-0.00011983375303484382
0.1175,-0.0001430785923901792
0.11775,-0.00014159299353129186
0.118,-0.00012340763667022836
0.11825,-9.474814361915857e-05
0.1185,-6.192704142763e-05
0.11875,-2.929882242774228e-05
0.119,-1.040054316925564e-06
0.11925,2.109912833207673e-05
0.1195,3.6551468956662534e-05
0.11975,4.6281567559409754e-05
0.12,5.020392656169956e-05
0.12025,4.947139559572109e-05
0.1205,4.527901281173585e-05
0.12075,3.953798801924075e-05
0.121,3.3569105950598985e-05
0.12125,2.8928173760930393e-05
0.1215,2.6084249322967467e-05
0.12175,2.5401735198293388e-05
0.122,2.6830128452204303e-05
0.12225,3.0033754565310566e-05
0.1225,3.476721313428284e-05
0.12275,4.156402450138749e-05
0.123,5.002966149676137e-05
0.12325,6.079225877139614e-05
0.1235,7.491716084209798e-05
0.12375,9.197188673853123e-05
0.124,0.00011232505210359819
0.12425,0.0001346977096672828
0.1245,0.00015702397135423197
0.12475,0.00017782120007684693
0.125,0.00019369433466685326
0.12525,0.00020395509263339233
0.1255,0.00020674214471612325
0.12575,0.00020228451594429085
0.126,0.0001917252310248027
0.12625,0.00017775081928793668
0.1265,0.00016276764284459125
0.12675,0.00015072496153406063
0.127,0.00014342297594926317
0.12725,0.00014214431368083906
0.1275,0.00014720300951423252
0.12775,0.00015691284762922483
0.128,0.00016947696045133874
0.12825,0.00018143934987469566
0.1285,0.0001905786180813907
0.12875,0.0001953576456773976
0.129,0.00019440349167159114
0.12925,0.0001879451780302855
0.1295,0.00017765409987792198
0.12975,0.0001640641297133381
0.13,0.00014988249690441654
0.13025,0.00013561478008759315
0.1305,0.00012214814028187142
0.13075,0.00010871211429232918
0.131,9.54576074933326e-05
0.13125,8.070716874489813e-05
0.1315,6.433123178174094e-05
0.13175,4.6493525676325674e-05
0.132,2.8463638046784615e-05
0.13225,1.1953157694865152e-05
0.1325,-1.4747558132123623e-06
0.13275,-9.040309197075585e-06
0.133,-9.735642992566677e-06
0.13325,-3.507684649200965e-06
0.1335,8.437430369552154e-06
0.13375,2.3834381295914563e-05
0.134,3.943607658143956e-05
0.13425,5.187373228983225e-05
0.1345,5.83525959737204e-05
0.13475,5.7207851654929396e-05
0.135,4.819835566852962e-05
0.13525,3.272246101397651e-05
0.1355,1.3305527918095451e-05
0.13575,-6.776946759580759e-06
0.136,-2.4329053715003762e-05
0.13625,-3.678668666198627e-05
0.1365,-4.2771661599636974e-05
0.13675,-4.219190259580522e-05
0.137,-3.6189072001851376e-05
0.13725,-2.6648332670446796e-05
0.1375,-1.57519461758904e-05
0.13775,-5.401649739491017e-06
0.138,3.215450483361883e-06
0.13825,9.621540602662348e-06
0.1385,1.4199991239564614e-05
0.13875,1.7681540838041966e-05
0.139,2.0936596142948002e-05
0.13925,2.4399471725899514e-05
0.1395,2.79886364616454e-05
0.13975,3.0958793134959074e-05
0.14,3.2223890536733344e-05
0.14025,3.060249960789933e-05
0.1405,2.5394385744658496e-05
0.14075,1.6606145856658643e-05
0.141,5.295880415198284e-06
0.14125,-6.694904687093669e-06
0.1415,-1.6662409613353965e-05
0.14175,-2.1895815917093853e-05
0.142,-2.019665570837562e-05
0.14225,-1.0799767883720274e-05
0.1425,6.167058176312176e-06
0.14275,2.8945968059521652e-05
0.143,5.4886748116414774e-05
0.14325,8.116210037868252e-05
0.1435,0.00010428466511864856
0.14375,0.00012223433809359688
0.144,0.00013300313490309653
0.14425,0.000136919600399507
0.1445,0.0001340159503362757
0.14475,0.00012638484716058528
0.145,0.00011589888833073107
0.14525,0.00010424342468952995
0.1455,9.257950873997714e-05
0.14575,8.18677306822318e-05
0.146,7.238629661332205e-05
0.14625,6.424987521663228e-05
0.1465,5.70519292963868e-05
0.14675,5.112774477640113e-05
0.147,4.61013733513529e-05
0.14725,4.241292539793721e-05
0.1475,4.013710456315393e-05
0.14775,4.021568005678903e-05
0.148,4.212911056312579e-05
0.14825,4.55834151898722e-05
0.1485,4.969309356163528e-05
0.14875,5.3416862710917744e-05
0.149,5.442055220789296e-05
0.14925,5.1142794470013546e-05
0.1495,4.208706399297383e-05
0.14975,2.714868878106792e-05
0.15,6.748739883861577e-06
0.15025,-1.7465504842610475e-05
0.1505,-4.383256639592926e-05
0.15075,-7.004193798000632e-05
0.151,-9.455153717448279e-05
0.15125,-0.00011350519265762853
0.1515,-0.00012020901642726374
0.15175,-0.00010845429037753215
0.152,-7.473399526715766e-05
0.15225,-1.8585351616749662e-05
0.1525,5.962259148004448e-05
0.15275,0.00015745858208595265
0.153,0.00026939488418054736
0.15325,0.000375427028325777
0.1535,0.0004533583940609785
0.15375,0.0004921781370283779
0.154,0.00047790651970347866
0.15425,0.00041229876658915307
0.1545,0.0003114052943387111
0.15475,0.00019353893250755055
0.155,7.867228542123632e-05
0.15525,-1.9933861717226855e-05
0.1555,-9.45241895969443e-05
0.15575,-0.00014116039632389865
0.156,-0.00015983701392873408
0.15625,-0.0001574315490505706
0.1565,-0.00013944444772018825
0.15675,-0.00011133585820990348
0.157,-7.882352649991735e-05
0.15725,-4.530368291507857e-05
0.1575,-1.5946044188379046e-05
0.15775,7.882957887289375e-06
0.158,2.521858925058452e-05
0.15825,3.614791803706139e-05
0.1585,4.062482078367973e-05
0.15875,3.98319950258533e-05
0.159,3.4946562419117856e-05
0.15925,2.788659431309772e-05
0.1595,2.0052761920190375e-05
0.15975,1.3032939404694062e-05
0.16,7.721729699949232e-06
0.16025,5.114486318206783e-06
0.1605,5.017198224688514e-06
0.16075,7.810376720455755e-06
0.161,1.2961878875175697e-05
0.16125,2.036423346136631e-05
0.1615,3.102992522646654e-05
0.16175,4.401875669509975e-05
0.162,6.030426939948819e-05
0.16225,7.935497173471331e-05
0.1625,0.00010050952596864034
0.16275,0.00012277981754419136
0.163,0.00014395558770319983
0.16325,0.00016169515911810455
0.1635,0.00017430591582140545
0.16375,0.00018065065834932877
0.164,0.00017946973241098386
0.16425,0.00017192774177012492
0.1645,0.00015989703492654464
0.16475,0.00014541540594330417
0.165,0.000132102845817698
0.16525,0.000122302196757267
0.1655,0.00011748244381770138
0.16575,0.00011884349786940658
0.166,0.0001258016608999452
0.16625,0.0001365823459670063
0.1665,0.00014852722612683137
0.16675,0.000159897165779941
0.167,0.00016799054995935493
0.16725,0.00017117692179405644
0.1675,0.00016920822935045818
0.16775,0.00016244550368562554
0.168,0.00015237400435975378
0.16825,0.00013990571576021822
0.1685,0.0001261238629015022
0.16875,0.00011219882654995206
0.169,9.780064521385663e-05
0.16925,8.294361396613432e-05
0.1695,6.706728185333605e-05
0.16975,5.005525074843789e-05
0.17,3.1865387622175115e-05
0.17025,1.4065598952760268e-05
0.1705,-2.6041129798651065e-06
0.17075,-1.5187180905524902e-05
0.171,-2.25247721138772e-05
0.17125,-2.298058586572074e-05
0.1715,-1.6777120425045243e-05
0.17175,-4.739803430504234e-06
0.172,1.0539814728500036e-05
0.17225,2.6174525937002134e-05
0.1725,3.8576032534249544e-05
0.17275,4.508520451693113e-05
0.173,4.366688800923968e-05
0.17325,3.433410226560717e-05
0.1735,1.8055974855402283e-05
0.17375,-2.39809560822378e-06
0.174,-2.39442172606024e-05
0.17425,-4.311748805866281e-05
0.1745,-5.739683901567093e-05
0.17475,-6.501458737211279e-05
0.175,-6.59686732002286e-05
0.17525,-6.106578357037539e-05
0.1755,-5.2257800837559676e-05
0.17575,-4.1567948166447677e-05
0.176,-3.114586591477742e-05
0.17625,-2.2114139541078425e-05
0.1765,-1.521109821855776e-05
0.17675,-9.975881047772562e-06
0.177,-5.8699616470367045e-06
0.17725,-2.048702306672601e-06
0.1775,1.7128798016563858e-06
0.17775,5.478079190083162e-06
0.178,8.193945546057402e-06
0.17825,8.970090406211486e-06
0.1785,6.4734039984410814e-06
0.17875,2.4710823364242064e-07
0.179,-9.779368597577708e-06
0.17925,-2.2175816813161305e-05
0.1795,-3.501742536718967e-05
0.17975,-4.51427695609555e-05
0.18,-5.0162485018769585e-05
0.18025,-4.783032663627615e-05
0.1805,-3.7480991484494346e-05
0.18075,-1.9302806045422275e-05
0.181,4.762961541728724e-06
0.18125,3.201617618624918e-05
0.1815,5.8913720597509265e-05
0.18175,8.261976903002521e-05
0.182,0.00010004748082364285
0.18225,0.00011047620109795197
0.1825,0.00011339282137643147
0.18275,0.00010963220925450089
0.183,0.00010110018061214486
0.18325,9.009216905152853e-05
0.1835,7.778998433724482e-05
0.18375,6.659109972977675e-05
0.184,5.6108518018628215e-05
0.18425,4.703410365231771e-05
0.1845,3.89980192751342e-05
0.18475,3.222098832128823e-05
0.185,2.6480715349155563e-05
0.18525,2.1329223027129983e-05
0.1855,1.768776181948069e-05
0.18575,1.558504269771932e-05
0.186,1.5426740669149396e-05
0.18625,1.7267489683263603e-05
0.1865,2.042422598149804e-05
0.18675,2.403245247899871e-05
0.187,2.655677372126398e-05
0.18725,2.676965082729017e-05
0.1875,2.2411399678320323e-05
0.18775,1.2706290552042724e-05
0.188,-3.1078676538866946e-06
0.18825,-2.380921737492205e-05
0.1885,-4.862507733749681e-05
0.18875,-7.495357963217272e-05
0.189,-0.00010183583472026305
0.18925,-0.00012708867480797092
0.1895,-0.00014334792779556945
0.18975,-0.00014361539450923652
0.19,-0.0001229976019273173
0.19025,-8.016603675513627e-05
0.1905,-1.5054025984965717e-05
0.19075,7.007795798838827e-05
0.191,0.00017189432253507798
0.19125,0.0002830260292766354
0.1915,0.0003806601565418101
0.19175,0.0004446474858876121
0.192,0.0004614803401406592
0.19225,0.00042495408200672396
0.1925,0.00034421052829942554
0.19275,0.00023373717047258053
0.193,0.00011693506331364211
0.19325,8.500222316349605e-06
0.1935,-7.97984750665642e-05
0.19375,-0.00014234392702740825
0.194,-0.0001771635733962591
0.19425,-0.00018850314798309146
0.1945,-0.0001792186332452318
0.19475,-0.00015497187470711672
0.195,-0.00012235296286050682
0.19525,-8.835693275272858e-05
0.1955,-5.690006407538708e-05
0.19575,-2.9515379816945816e-05
0.196,-8.285562226828996e-06
0.19625,6.2477571693718946e-06
0.1965,1.382431185946394e-05
0.19675,1.556343048189726e-05
0.197,1.2369266219379725e-05
0.19725,5.849049950910862e-06
0.1975,-2.1235234039873617e-06
0.19775,-9.659445946510562e-06
0.198,-1.53603910181157e-05
0.19825,-1.838544863582524e-05
0.1985,-1.8586792163796698e-05
0.19875,-1.6137054397104122e-05
0.199,-1.1498394632874982e-05
0.19925,-4.948163951220403e-06
0.1995,3.3296047657709746e-06
0.19975,1.3723975317534669e-05
0.2,2.6529806127241365e-05
0.20025,4.2275619389279894e-05
0.2005,6.030380130232142e-05
0.20075,8.05767458206467e-05
0.201,0.00010175530387343719
0.20125,0.00012183745188318795
0.2015,0.00013808549829802947
0.20175,0.00014929332973134373
0.202,0.00015370296311672044
0.20225,0.00015086843795302746
0.2025,0.000142533143229984
0.20275,0.0001296266901428523
0.203,0.00011546398797750908
0.20325,0.00010345578645538526
0.2035,9.584614987268054e-05
0.20375,9.379849437872635e-05
0.204,9.799324068003831e-05
0.20425,0.00010735681138194031
0.2045,0.00011959365148929412
0.20475,0.00013235260723136244
0.205,0.00014272405139447746
0.20525,0.00014844968283446116
0.2055,0.00014922092202950807
0.20575,0.00014410597498312028
0.206,0.00013471358070011252
0.20625,0.00012260495604162052
0.2065,0.00010899742127824113
0.20675,9.505275795274143e-05
0.207,8.208616682768304e-05
0.20725,6.88824086091578e-05
0.2075,5.569239863494567e-05
0.20775,4.166244617978573e-05
0.208,2.644053332571468e-05
0.20825,1.0144296835211257e-05
0.2085,-5.88083990719654e-06
0.20875,-2.013585865977306e-05
0.209,-3.0445764768189803e-05
0.20925,-3.521763818840754e-05
0.2095,-3.3428586495344714e-05
0.20975,-2.548721175574121e-05
0.21,-1.2878820292805279e-05
0.21025,1.7405843331176782e-06
0.2105,1.5147723745283335e-05
0.21075,2.4197290416758756e-05
0.211,2.6475320471261446e-05
0.21125,2.087901817399661e-05
0.2115,7.827599383012346e-06
0.21175,-1.0808951922666735e-05
0.212,-3.2134593456499e-05
0.21225,-5.270397168779432e-05
0.2125,-6.945690554618564e-05
0.21275,-8.069486051804684e-05
0.213,-8.530082730839409e-05
0.21325,-8.328506101453204e-05
0.2135,-7.65086487202274e-05
0.21375,-6.737670790156275e-05
0.214,-5.712568092702117e-05
0.21425,-4.813408885523015e-05
0.2145,-4.0593295346743545e-05
0.21475,-3.4862668477007776e-05
0.215,-3.0631718765884815e-05
0.21525,-2.6543593220422105e-05
0.2155,-2.262618636797929e-05
0.21575,-1.8544874190020324e-05
0.216,-1.4622829710161284e-05
0.21625,-1.2181292002382458e-05
0.2165,-1.2712055096220036e-05
0.21675,-1.6685083958312467e-05
0.217,-2.462933826363756e-05
0.21725,-3.5598821207298865e-05
0.2175,-4.799663005583902e-05
0.21775,-5.918087069694578e-05
0.218,-6.649304977016462e-05
0.21825,-6.729779985420894e-05
0.2185,-6.0084421210718874e-05
0.21875,-4.451153784785746e-05
0.219,-2.2033823364435904e-05
0.21925,5.019564103148435e-06
0.2195,3.325345446764041e-05
0.21975,5.951064593479789e-05
0.22,8.072824961617441e-05
0.22025,9.530752200695603e-05
0.2205,0.00010276995940662894
0.22075,0.00010328955341781619
0.221,9.820225036486968e-05
0.22125,9.021952426150618e-05
0.2215,7.979993519828158e-05
0.22175,6.938738813291819e-05
0.222,5.897545894089093e-05
0.22225,4.940050997169303e-05
0.2225,4.042961883046994e-05
0.22275,3.2271600666407404e-05
0.223,2.4473028672706944e-05
0.22325,1.7283767762615284e-05
0.2235,1.1550285802427329e-05
0.22375,7.357270936080089e-06
0.224,5.460675863513833e-06
0.22425,6.0749675908144e-06
0.2245,8.806637568514368e-06
0.22475,1.280323307065141e-05
0.225,1.6434756950446956e-05
0.22525,1.826662809629605e-05
0.2255,1.63398222854509e-05
0.22575,9.62447301728721e-06
0.226,-3.099925264902698e-06
0.22625,-2.1322435438563502e-05
0.2265,-4.479503209408401e-05
0.22675,-7.054300430775137e-05
0.227,-9.831165396863905e-05
0.22725,-0.00012407693748241435
0.2275,-0.00014234438323135044
0.22775,-0.0001488997503561657
0.228,-0.00013980110918372844
0.22825,-0.00011073061191188354
0.2285,-5.837736847361664e-05
0.22875,1.851914152006951e-05
0.229,0.00011432059300923188
0.22925,0.0002208244139405304
0.2295,0.00032336199126468593
0.22975,0.0004079754779229042
0.23,0.00045016145773458757
0.23025,0.00043350345444358407
0.2305,0.00037188205737363555
0.23075,0.0002756789384577557
0.231,0.00016237520887286925
0.23125,4.687851777963015e-05
0.2315,-5.130666292004185e-05
0.23175,-0.00012526951653170045
0.232,-0.00017315785341228743
0.23225,-0.0001954510990649894
0.2325,-0.00019398457930551368
0.23275,-0.00017541019166736398
0.233,-0.00014564256344620798
0.23325,-0.00011219528513559614
0.2335,-7.865309168270001e-05
0.23375,-4.827489811538823e-05
0.234,-2.3481097916256782e-05
0.23425,-6.058519365005633e-06
0.2345,4.850526207205784e-06
0.23475,9.468253095465477e-06
0.235,8.470058476925046e-06
0.23525,3.0343181504193244e-06
0.2355,-4.7895136215904165e-06
0.23575,-1.3306815422865753e-05
0.236,-2.065234416419449e-05
0.23625,-2.595107555074696e-05
0.2365,-2.8419130084842305e-05
0.23675,-2.8133603584924496e-05
0.237,-2.512172784160709e-05
0.23725,-1.9782514503267178e-05
0.2375,-1.2065590765344839e-05
0.23775,-2.0623596289043076e-06
0.238,1.0723102849697424e-05
0.23825,2.6372979812387686e-05
0.2385,4.5058195782330914e-05
0.23875,6.586448859971417e-05
0.239,8.781036560260634e-05
0.23925,0.00010899356746323452
0.2395,0.00012751657798569166
0.23975,0.00014114769993282884
0.24,0.00014796374246587934
0.24025,0.0001473662874094168
0.2405,0.00014010075409577605
0.24075,0.00012744866129935745
0.241,0.00011300587493729738
0.24125,9.853758914715955e-05
0.2415,8.792975099169813e-05
0.24175,8.276111393858172e-05
0.242,8.41744488427927e-05
0.24225,9.099076698096337e-05
0.2425,0.00010200430275693208
0.24275,0.00011480934097915221
0.243,0.00012660880068708188
0.24325,0.00013466636431111017
0.2435,0.00013815918735277883
0.24375,0.0001364147048866829
0.244,0.00012975952816517725
0.24425,0.0001196643290922369
0.2445,0.00010745693036151619
0.24475,9.478395147879787e-05
0.245,8.196500740546182e-05
0.24525,6.924136050641097e-05
0.2455,5.582737826084292e-05
0.24575,4.183278574651436e-05
0.246,2.6137123489566985e-05
0.24625,9.033375042908249e-06
0.2465,-8.676280540810271e-06
0.24675,-2.520453022512064e-05
0.247,-3.861406746637427e-05
0.24725,-4.6759411635646614e-05
0.2475,-4.843120861825923e-05
0.24775,-4.305807307793154e-05
0.248,-3.183665867619656e-05
0.24825,-1.679454742085726e-05
0.2485,-1.2249348398507e-06
0.24875,1.1612179894472013e-05
0.249,1.852239255659841e-05
0.24925,1.793619767873471e-05
0.2495,8.961322953783617e-06
0.24975,-7.0710426485590395e-06
0.25,-2.735574614551445e-05
0.25025,-4.922323542309394e-05
0.2505,-6.858443702823945e-05
0.25075,-8.304728382221239e-05
0.251,-9.10693411753615e-05
0.25125,-9.218914492433288e-05
0.2515,-8.706080922420232e-05
0.25175,-7.817647363017125e-05
0.252,-6.719700918983421e-05
0.25225,-5.6498888935116394e-05
0.2525,-4.770379569428225e-05
0.25275,-4.073516706508738e-05
0.253,-3.6014608122975734e-05
0.25325,-3.242557702050095e-05
0.2535,-2.9469627055911524e-05
0.25375,-2.611883129325602e-05
0.254,-2.255207522850763e-05
0.25425,-1.944892028044529e-05
0.2545,-1.7842776872013615e-05
0.25475,-1.9223930621962462e-05
0.255,-2.3889541284879062e-05
0.25525,-3.201789352289735e-05
0.2555,-4.290552859385563e-05
0.25575,-5.432278010374226e-05
0.256,-6.366754420165633e-05
0.25625,-6.829849997105052e-05
0.2565,-6.618590844176912e-05
0.25675,-5.602313712974396e-05
0.257,-3.806798903226025e-05
0.25725,-1.3678991897597317e-05
0.2575,1.4410405138032318e-05
0.25775,4.313655991244894e-05
0.258,6.895690485551821e-05
0.25825,8.941602470093345e-05
0.2585,0.0001024597628055281
0.25875,0.00010826312717486953
0.259,0.0001069343095756098
0.25925,0.00010002096191128899
0.2595,9.014443348291776e-05
0.25975,7.85897046151909e-05
0.26,6.694166798874592e-05
0.26025,5.6432329299100145e-05
0.2605,4.6963996188752865e-05
0.26075,3.8706071687715e-05
0.261,3.187874935301891e-05
0.26125,2.6129870678029755e-05
0.2615,2.1444721779822332e-05
0.26175,1.7427979604369476e-05
0.262,1.5107713226914658e-05
0.26225,1.4229256199156368e-05
0.2625,1.5123465620224246e-05
0.26275,1.7216861412658644e-05
0.263,1.9781982846145083e-05
0.26325,2.1604023430373952e-05
0.2635,2.13680263464214e-05
0.26375,1.78489044229466e-05
0.264,1.0008628523887179e-05
0.26425,-3.2114736020864247e-06
0.2645,-2.180216591114205e-05
0.26475,-4.4833357348731934e-05
0.265,-7.062730417154033e-05
0.26525,-9.713089506887226e-05
0.2655,-0.00012264244322758529
0.26575,-0.00014185896363310546
0.266,-0.0001489723038031743
0.26625,-0.0001382001873774567
0.2665,-0.00010683632346339155
0.26675,-5.3154531633408553e-05
0.267,2.356157914218559e-05
0.26725,0.00012407692224279405
0.2675,0.00024053819326148192
0.26775,0.00034507153755153526
0.268,0.000420845061706329
0.26825,0.00045297722359166436
0.2685,0.00043783952857942885
0.26875,0.00037624945476141976
0.269,0.0002755377850741327
0.26925,0.00015930464565307626
0.2695,4.477704439651768e-05
0.26975,-5.428591742684273e-05
0.27,-0.00012930651584796402
0.27025,-0.00017573972256004197
0.2705,-0.00019413784833109088
0.27075,-0.0001900486636317636
0.271,-0.00016915948079864433
0.27125,-0.00013819917489347105
0.2715,-0.00010265276420698356
0.27175,-6.883801805267781e-05
0.272,-3.946136856873912e-05
0.27225,-1.664529183470859e-05
0.2725,-1.1083159351326377e-07
0.27275,1.013441807915722e-05
0.273,1.4225238361737109e-05
0.27325,1.3092920013280597e-05
0.2735,8.266350578366205e-06
0.27375,1.4520926628647896e-06
0.274,-5.555976652654946e-06
0.27425,-1.149243853348112e-05
0.2745,-1.548923769131929e-05
0.27475,-1.7192955322152813e-05
0.275,-1.6404217145946492e-05
0.27525,-1.3437694308829875e-05
0.2755,-8.378387798015749e-06
0.27575,-1.1884286044560886e-06
0.276,8.282069000531618e-06
0.27625,2.0640055968137655e-05
0.2765,3.610350419460069e-05
0.27675,5.438458471774983e-05
0.277,7.573635764861567e-05
0.27725,9.830972849665339e-05
0.2775,0.0001201266317038659
0.27775,0.00013946632754740902
0.278,0.00015401205342812502
0.27825,0.00016178866087342692
0.2785,0.0001620609647539729
0.27875,0.0001558076946363894
0.279,0.0001438264435129299
0.27925,0.00012940393482903403
0.2795,0.00011536244159487275
0.27975,0.00010412987906223039
0.28,9.856463694009047e-05
0.28025,9.90337137472679e-05
0.2805,0.00010546919708857332
0.28075,0.00011618890245198863
0.281,0.00012862608771433724
0.28125,0.0001400835201841075
0.2815,0.00014875893574413366
0.28175,0.00015240185250447148
0.282,0.00015133010198111255
0.28225,0.00014536840142633672
0.2825,0.0001353750705730579
0.28275,0.00012378747348086697
0.283,0.00011127613144918502
0.28325,9.873197615598681e-05
0.2835,8.683759790046305e-05
0.28375,7.4267640261989e-05
0.284,6.096798630207913e-05
0.28425,4.59390522673777e-05
0.2845,2.962994180119583e-05
0.28475,1.208640968159145e-05
0.285,-4.8072045691285375e-06
0.28525,-1.9417703830961192e-05
0.2855,-2.9386280850123054e-05
0.28575,-3.334029410447021e-05
0.286,-3.0294769721279734e-05
0.28625,-2.1063153763963552e-05
0.2865,-7.17244871009648e-06
0.28675,8.302706725123143e-06
0.287,2.2293422808891595e-05
0.28725,3.1472725063430546e-05
0.2875,3.377013446153294e-05
0.28775,2.8058242609580393e-05
0.288,1.5179421575046765e-05
0.28825,-3.036391366587241e-06
0.2885,-2.340309578886806e-05
0.28875,-4.2866070818957055e-05
0.289,-5.817279801255538e-05
0.28925,-6.762166222415441e-05
0.2895,-7.023372281536452e-05
0.28975,-6.679788391270226e-05
0.29,-5.876643188727378e-05
0.29025,-4.8417260682994885e-05
0.2905,-3.7682014314054664e-05
0.29075,-2.8362862757241148e-05
0.291,-2.103665074152717e-05
0.29125,-1.593315015670343e-05
0.2915,-1.2252082687880635e-05
0.29175,-9.277046028731019e-06
0.292,-6.136367880534086e-06
0.29225,-2.799584624824825e-06
0.2925,4.824651756588405e-07
0.29275,2.539891625386817e-06
0.293,2.4493230791945965e-06
0.29325,-1.0888646456605672e-06
0.2935,-8.10406237365675e-06
0.29375,-1.8332052365778675e-05
0.294,-2.9977249961651852e-05
0.29425,-4.0950320353438925e-05
0.2945,-4.824055885180053e-05
0.29475,-4.960610091342296e-05
0.295,-4.3090918825136685e-05
0.29525,-2.856002792217191e-05
0.2955,-6.592774323992961e-06
0.29575,2.0126717060763245e-05
0.296,4.912761627150521e-05
0.29625,7.640315704328767e-05
0.2965,9.955400640646985e-05
0.29675,0.00011581235031622353
0.297,0.00012466993492393744
0.29725,0.00012602514834896494
0.2975,0.00012098643628994347
0.29775,0.00011166841396764397
0.298,9.96159008107239e-05
0.29825,8.712669660984029e-05
0.2985,7.563561549289462e-05
0.29875,6.509794133471045e-05
0.299,5.6285177929848055e-05
0.29925,4.8710611956115786e-05
0.2995,4.2060439467764616e-05
0.29975,3.6351716996258865e-05
0.3,3.1603959983647434e-05
0.30025,2.7972783222989553e-05
0.3005,2.6217800270530436e-05
0.30075,2.692849910197293e-05
0.301,2.9390934684410593e-05
0.30125,3.332747277810282e-05
0.3015,3.7325449709231265e-05
0.30175,3.9947169156589596e-05
0.302,3.932848999073737e-05
0.30225,3.4214875547694934e-05
0.3025,2.367973729038524e-05
0.30275,7.75899308914381e-06
0.303,-1.3161425492397387e-05
0.30325,-3.862584764229239e-05
0.3035,-6.658266769167213e-05
0.30375,-9.395391929293228e-05
0.304,-0.00011660773164208951
0.30425,-0.00012937179395481447
0.3045,-0.00012803067091682365
0.30475,-0.0001071604480297858
0.305,-6.148174388485335e-05
0.30525,8.711769707471855e-06
0.3055,0.00010103718268401511
0.30575,0.00020728041672526628
0.306,0.0003179448294436824
0.30625,0.0004134000826532762
0.3065,0.00047165416359616917
0.30675,0.0004799573216831097
0.307,0.00043447695586629
0.30725,0.0003467423943986041
0.3075,0.00023435893884950714
0.30775,0.00011792810503246856
0.308,1.286599004754372e-05
0.30825,-7.04572384123703e-05
0.3085,-0.00012723328123712496
0.30875,-0.00015510791107237464
0.309,-0.00015922536414278524
0.30925,-0.00014680705863785617
0.3095,-0.00012273520256015326
0.30975,-9.199519390703981e-05
0.31,-5.9315172199682164e-05
0.31025,-2.883354460791448e-05
0.3105,-3.060583238551453e-06
0.31075,1.6465347165968942e-05
0.311,2.981098947092931e-05
0.31125,3.6883478210534674e-05
0.3115,3.831550522695939e-05
0.31175,3.524148123367854e-05
0.312,2.9374363857155093e-05
0.31225,2.240852315623201e-05
0.3125,1.5937058889294506e-05
0.31275,1.0957606329174382e-05
0.313,8.106216528428759e-06
0.31325,7.665334921890706e-06
0.3135,9.591989879597392e-06
0.31375,1.3860384895038766e-05
0.314,2.0336370743943954e-05
0.31425,2.8826773690437205e-05
0.3145,4.0062004616170534e-05
0.31475,5.4183792751689996e-05
0.315,7.169248725616572e-05
0.31525,9.184450573653441e-05
0.3155,0.00011396723869957416
0.31575,0.0001363325879331745
0.316,0.00015647375189917966
0.31625,0.00017297726150030963
0.3165,0.00018326806219161218
0.31675,0.00018633359263446977
0.317,0.00018236638463457738
0.31725,0.00017242377783164024
0.3175,0.0001587710461220884
0.31775,0.0001442698847154195
0.318,0.00013245486749582051
0.31825,0.00012548744486146597
0.3185,0.00012437394775444415
0.31875,0.00012942196750870597
0.319,0.00013977530273230003
0.31925,0.00015232071017436165
0.3195,0.00016559537731475254
0.31975,0.00017605778557858693
0.32,0.0001820576589566608
0.32025,0.0001827923239786443
0.3205,0.00017861600190613412
0.32075,0.00017021145264603047
0.321,0.00015896397130393277
0.32125,0.00014636132581455247
0.3215,0.00013361485640618617
0.32175,0.00012095874399211492
0.322,0.00010797492939138891
0.32225,9.422263650460771e-05
0.3225,7.898286151876831e-05
0.32275,6.227637716721373e-05
0.323,4.4071129705163045e-05
0.32325,2.5484170275060153e-05
0.3235,9.030033355986259e-06
0.32375,-3.312969306365426e-06
0.324,-9.742624480490557e-06
0.32425,-8.918375773821592e-06
0.3245,-1.058094795924207e-06
0.32475,1.2361541023382543e-05
0.325,2.8591782323017035e-05
0.32525,4.4330048960858064e-05
0.3255,5.611212291521255e-05
0.32575,6.123251062317921e-05
0.326,5.8144195850853646e-05
0.32625,4.7037386118201645e-05
0.3265,2.9594334053707285e-05
0.32675,8.694953160020115e-06
0.327,-1.222572283958291e-05
0.32725,-2.9879665250138047e-05
0.3275,-4.184662175330163e-05
0.32775,-4.693352545145796e-05
0.328,-4.5282511541687445e-05
0.32825,-3.8434799283335323e-05
0.3285,-2.8363975784015746e-05
0.32875,-1.739660865501734e-05
0.329,-7.426765802542906e-06
0.32925,4.541217063970638e-07
0.3295,6.142820608729369e-06
0.32975,1.0103740582335223e-05
0.33,1.3283853894565067e-05
0.33025,1.6597480388362713e-05
0.3305,2.0477864660473823e-05
0.33075,2.4644379955172065e-05
0.331,2.8271576300241003e-05
0.33125,3.0017028618092922e-05
0.3315,2.8707543352770093e-05
0.33175,2.3520693890284873e-05
0.332,1.4689672142400754e-05
0.33225,3.3030212390909722e-06
0.3325,-8.437365555744555e-06
0.33275,-1.788199220069336e-05
0.333,-2.2194214792394718e-05
0.33325,-1.9447002989493736e-05
0.3335,-8.338578404161688e-06
0.33375,1.0294673359364081e-05
0.334,3.482986467118719e-05
0.33425,6.263492524683371e-05
0.3345,9.029006623504196e-05
0.33475,0.00011455416466356803
0.335,0.00013244450222030436
0.33525,0.0001433398346220441
0.3355,0.00014638744188440333
0.33575,0.00014249986498820084
0.336,0.000133940101875742
0.33625,0.0001224844732696281
0.3365,0.00011045773536370277
0.33675,9.842060117891752e-05
0.337,8.808729148866625e-05
0.33725,7.964730437155737e-05
0.3375,7.224638931163953e-05
0.33775,6.590594737157675e-05
0.338,6.050952226080162e-05
0.33825,5.615384020920729e-05
0.3385,5.21501749325237e-05
0.33875,5.00692312697319e-05
0.339,4.976069590575259e-05
0.33925,5.095622360215421e-05
0.3395,5.383346846924044e-05
0.33975,5.7012333878677874e-05
0.34,5.9196251296681456e-05
0.34025,5.8957799386323166e-05
0.3405,5.498707015102264e-05
0.34075,4.657858265149632e-05
0.341,3.313836288339485e-05
0.34125,1.4367875193994994e-05
0.3415,-8.813425050302674e-06
0.34175,-3.463503588861668e-05
0.342,-6.071068691471333e-05
0.34225,-8.416904137265977e-05
0.3425,-9.99944023728552e-05
0.34275,-0.00010240562383076818
0.343,-8.719237501347373e-05
0.34325,-5.089919665870592e-05
0.3435,9.676263204230289e-06
0.34375,9.484604385095196e-05
0.344,0.00019845454169779847
0.34425,0.0003066922119050699
0.3445,0.00040596998891257076
0.34475,0.00047934599676458434
0.345,0.000506135488390213
0.34525,0.0004757533657608147
0.3455,0.00040008583234963084
0.34575,0.0002967409062524407
0.346,0.00018094070443731952
0.34625,6.907886056180811e-05
0.3465,-2.3785682302593134e-05
0.34675,-9.030175136138647e-05
0.347,-0.00013016448472386204
0.34725,-0.00014470942222006563
0.3475,-0.00013732715313609286
0.34775,-0.00011424830183619907
0.348,-8.288703592461282e-05
0.34825,-4.933254342171232e-05
0.3485,-1.769796087760583e-05
0.34875,9.362345788281332e-06
0.349,2.973264308337434e-05
0.34925,4.347996280292729e-05
0.3495,5.113748852603777e-05
0.34975,5.3226925968291465e-05
0.35,5.070991270444674e-05
0.35025,4.516539528488367e-05
0.3505,3.833653559339963e-05
0.35075,3.1760586940419845e-05
0.351,2.6471746954891418e-05
0.35125,2.3270908264841903e-05
0.3515,2.2293213095899177e-05
0.35175,2.346496796435172e-05
0.352,2.685532994448441e-05
0.35225,3.174838703646004e-05
0.3525,3.880095017222327e-05
0.35275,4.78812196953689e-05
0.353,6.0427253071236665e-05
0.35325,7.577153834305345e-05
0.3535,9.430489749435834e-05
0.35375,0.00011567940996481976
0.354,0.00013786765916240956
0.35425,0.0001592617370754637
0.3545,0.00017744801166514595
0.35475,0.0001898569769309523
0.355,0.00019562036825834263
0.35525,0.00019445536894525353
0.3555,0.0001866127443899735
0.35575,0.00017442621527875707
0.356,0.00016060103010434612
0.35625,0.0001481270966442403
0.3565,0.0001394069422834632
0.35675,0.0001364576085369808
0.357,0.00013973626311430498
0.35725,0.00014858761145048225
0.3575,0.00016084052548044912
0.35775,0.00017375807652781977
0.358,0.000185435823030548
0.35825,0.00019313086704831527
0.3585,0.00019603860681760183
0.35875,0.00019348564487334092
0.359,0.00018632110434073203
0.35925,0.00017614669910152793
0.3595,0.0001636402755891573
0.35975,0.0001506514972009817
0.36,0.00013746207595413532
0.36025,0.0001246606100538015
0.3605,0.00011116522462918046
0.36075,9.660966068664656e-05
0.361,8.022798521219294e-05
0.36125,6.282675975189417e-05
0.3615,4.431987791879137e-05
0.36175,2.7079466605277385e-05
0.362,1.2909965091593575e-05
0.36225,4.015327053774208e-06
0.3625,1.5775123126362898e-06
0.36275,5.978521760065935e-06
0.363,1.6521284313046752e-05
0.36325,3.088422719643574e-05
0.3635,4.601907493866451e-05
0.36375,5.865055666409851e-05
0.364,6.5777997997772e-05
0.36425,6.54652359649966e-05
0.3645,5.720586984662396e-05
0.36475,4.196840444293759e-05
0.365,2.2123880165090843e-05
0.36525,8.409135773771676e-07
0.3655,-1.867516919314787e-05
0.36575,-3.362066009709853e-05
0.366,-4.231240472006932e-05
0.36625,-4.42710395265727e-05
0.3665,-4.033226326642905e-05
0.36675,-3.2160238956031066e-05
0.367,-2.188680315819213e-05
0.36725,-1.1418123788599073e-05
0.3675,-2.2055913630365446e-06
0.36775,5.150301682387534e-06
0.368,1.0735822462882733e-05
0.36825,1.5202397316996472e-05
0.3685,1.928241803076696e-05
0.36875,2.3503940332716412e-05
0.369,2.784544371697744e-05
0.36925,3.170279888812987e-05
0.3695,3.404268278738198e-05
0.36975,3.374335399833362e-05
0.37,2.9970721511315347e-05
0.37025,2.2585261053947324e-05
0.3705,1.2425852422733711e-05
0.37075,1.2468974663581757e-06
0.371,-8.58219757477605e-06
0.37125,-1.427720230880684e-05
0.3715,-1.3369735005655032e-05
0.37175,-4.9884667471926716e-06
0.372,1.1396824723650079e-05
0.37225,3.3966575820121016e-05
0.3725,6.033696151706236e-05
0.37275,8.742957189417105e-05
0.373,0.0001121595202116783
0.37325,0.00013221533532696385
0.3735,0.0001445792934557307
0.37375,0.00015012925680059683
0.374,0.00014824978186603964
0.37425,0.00014098363646148013
0.3745,0.00013031342735043196
0.37475,0.00011767153197040806
0.375,0.00010493704018081813
0.37525,9.35332745585501e-05
0.3755,8.295535034525367e-05
0.37575,7.410049999389692e-05
0.376,6.661839965678333e-05
0.37625,6.011192992837545e-05
0.3765,5.494493757689974e-05
0.37675,5.0879090669484804e-05
0.377,4.806557129003963e-05
0.37725,4.701937150340008e-05
0.3775,4.7626014809942966e-05
0.37775,4.957340643120365e-05
0.378,5.2198957237803485e-05
0.37825,5.49788223738859e-05
0.3785,5.618532553708899e-05
0.37875,5.3609596415772876e-05
0.379,4.5843550786605785e-05
0.37925,3.211302973537329e-05
0.3795,1.2864753925542982e-05
0.37975,-1.0832089305392854e-05
0.38,-3.680585245134574e-05
0.38025,-6.321350620852782e-05
0.3805,-8.71941029896257e-05
0.38075,-0.00010765267064409166
0.381,-0.00011965960016455613
0.38125,-0.00011353881146048292
0.3815,-8.362364480439638e-05
0.38175,-2.728684936867343e-05
0.382,5.281894960788151e-05
0.38225,0.00015200304067952206
0.3825,0.00026069244165223554
0.38275,0.00036896086219878653
0.383,0.00045477986362363955
0.38325,0.000501945977779306
0.3835,0.0004989985036303588
0.38375,0.00044103703809071605
0.384,0.0003429563404355175
0.38425,0.0002259287751674256
0.3845,0.00010980132510295216
0.38475,7.027443777588318e-06
0.385,-7.275132154965803e-05
0.38525,-0.0001250230225500531
0.3855,-0.00015027971593331593
0.38575,-0.00015121164810353308
0.386,-0.00013423252101290299
0.38625,-0.00010608811342925514
0.3865,-7.285316578540868e-05
0.38675,-4.005186716617121e-05
0.387,-1.0463785023595196e-05
0.38725,1.3675454232508617e-05
0.3875,3.196479690529852e-05
0.38775,4.389047242666781e-05
0.388,4.9712272210296975e-05
0.38825,4.996547272848472e-05
0.3885,4.607223438179898e-05
0.38875,3.948061071885595e-05
0.389,3.208915126356e-05
0.38925,2.5011859887372398e-05
0.3895,1.9494732290955955e-05
0.38975,1.5749151152927524e-05
0.39,1.4419194057041717e-05
0.39025,1.5215142060981115e-05
0.3905,1.8587371635023604e-05
0.39075,2.4460558415541458e-05
0.391,3.295916283553482e-05
0.39125,4.4408985040437475e-05
0.3915,5.929742887163318e-05
0.39175,7.721612084624744e-05
0.392,9.795248471745443e-05
0.39225,0.00012035365892518857
0.3925,0.000142530762688783
0.39275,0.0001625745114667783
0.393,0.00017822781806646454
0.39325,0.0001875807571825151
0.3935,0.00019016445277286826
0.39375,0.0001857630379030805
0.394,0.00017602188554625753
0.39425,0.00016272247466627042
0.3945,0.0001495820512621322
0.39475,0.0001388211203902622
0.395,0.0001327234722838447
0.39525,0.0001327989511898677
0.3955,0.0001388883112270341
0.39575,0.00014956854306382903
0.396,0.0001622428627420726
0.39625,0.00017455605510590343
0.3965,0.00018387067485116447
0.39675,0.00018927600080330184
0.397,0.00018917308550047579
0.39725,0.00018428775575547087
0.3975,0.00017479772910207567
0.39775,0.00016324854470915054
0.398,0.00015019293671961062
0.39825,0.0001369644630405603
0.3985,0.00012406877545727401
0.39875,0.00011127478529384686
0.399,9.731653445214683e-05
0.39925,8.193370040300326e-05
0.3995,6.502986786469667e-05
0.39975,4.6935111706560015e-05
0.4,2.8364918973714517e-05
0.40025,1.1484786674654011e-05
0.4005,-1.1822396094949835e-06
0.40075,-8.188694516213944e-06
0.401,-8.360743919369734e-06
0.40125,-1.7464744323780553e-06
0.4015,1.0299835060222354e-05
0.40175,2.5184903536522752e-05
0.402,3.963070079834705e-05
0.40225,5.032707810283181e-05
0.4025,5.445165120515192e-05
0.40275,5.056163819179264e-05
0.403,3.858201170656852e-05
0.40325,2.0219979448133815e-05
0.4035,-1.8537045195668437e-06
0.40375,-2.412509176509089e-05
0.404,-4.324809726351519e-05
0.40425,-5.660198149124486e-05
0.4045,-6.283199546199602e-05
0.40475,-6.197775836607764e-05
0.405,-5.530010847425072e-05
0.40525,-4.488466794910542e-05
0.4055,-3.3121622689196555e-05
0.40575,-2.2064867137497394e-05
0.406,-1.306876805146441e-05
0.40625,-6.527213394014946e-06
0.4065,-2.074391138109114e-06
0.40675,1.245118276934802e-06
0.407,4.408830012015455e-06
0.40725,8.13435961380439e-06
0.4075,1.2418766109383852e-05
0.40775,1.6682826921357744e-05
0.408,1.9649471393952967e-05
0.40825,2.0116804758833156e-05
0.4085,1.6936122358359652e-05
0.40875,1.003332606685152e-05
0.409,-4.219550511006597e-08
0.40925,-1.1393454294825014e-05
0.4095,-2.168350534006701e-05
0.40975,-2.7973160477020993e-05
0.41,-2.7986018705735287e-05
0.41025,-2.0091672106155915e-05
0.4105,-4.275803165377856e-06
0.41075,1.8556707146551327e-05
0.411,4.563125862887279e-05
0.41125,7.4029272978652e-05
0.4115,0.00010050993953130544
0.41175,0.0001220881726817986
0.412,0.00013594421858138678
0.41225,0.00014228489134410563
0.4125,0.0001407601619778291
0.41275,0.00013311961159666154
0.413,0.00012132115222548524
0.41325,0.00010730412758157818
0.4135,9.345319428325286e-05
0.41375,8.138208734102687e-05
0.414,7.112824184585256e-05
0.41425,6.28367943565201e-05
0.4145,5.5849327510555595e-05
0.41475,5.00191469723419e-05
0.415,4.4782461103151476e-05
0.41525,4.0251998691495805e-05
0.4155,3.629003578730509e-05
0.41575,3.2970518755801056e-05
0.416,3.110298850153749e-05
0.41625,3.055558869257017e-05
0.4165,3.1102835600258306e-05
0.41675,3.191250133281859e-05
0.417,3.1885874301054545e-05
0.41725,2.9695123020652814e-05
0.4175,2.421393514267077e-05
0.41775,1.4522417673684078e-05
0.418,4.976224727896739e-07
0.41825,-1.811090159909744e-05
0.4185,-4.1340637470149855e-05
0.41875,-6.737699449159748e-05
0.419,-9.333475140789674e-05
0.41925,-0.00011508245914807696
0.4195,-0.0001283517289515104
0.41975,-0.00012734667101551347
0.42,-0.0001061758239687538
0.42025,-6.0416156961206875e-05
0.4205,1.0147829915686325e-05
0.42075,0.00010292763183202431
0.421,0.00021101369895001654
0.42125,0.000324262625733467
0.4215,0.00041913287656891425
0.42175,0.00047684532377950824
0.422,0.0004872416525296699
0.42225,0.00044330902886146576
0.4225,0.00035467379837998014
0.42275,0.00024057344102924175
0.423,0.00012182509786589877
0.42325,1.3628630914979273e-05
0.4235,-7.352924653549357e-05
0.42375,-0.00013314997971754103
0.424,-0.00016512445232444488
0.42425,-0.00017288273263527608
0.4245,-0.00016107368389471643
0.42475,-0.00013521786642993952
0.425,-0.00010232509994140458
0.42525,-6.926516217212612e-05
0.4255,-3.991181902381594e-05
0.42575,-1.615657733399578e-05
0.426,1.8169748292440298e-06
0.42625,1.3460362580050343e-05
0.4265,1.951016542632453e-05
0.42675,2.1178756298962167e-05
0.427,1.9625774814752705e-05
0.42725,1.575694399434856e-05
0.4275,1.0947846322512838e-05
0.42775,6.01011665217509e-06
0.428,1.8160196114430052e-06
0.42825,-1.4687987919911876e-06
0.4285,-3.528566620120041e-06
0.42875,-4.506917163039965e-06
0.429,-3.940612740582077e-06
0.42925,-1.7352562004235993e-06
0.4295,3.243057105876873e-06
0.42975,1.109612125020709e-05
0.43,2.3220394318540034e-05
0.43025,3.954912005472148e-05
0.4305,5.980741451444423e-05
0.43075,8.302667065358741e-05
0.431,0.00010712712382211602
0.43125,0.00013003274141913692
0.4315,0.00014925878218050357
0.43175,0.00016257772185909668
0.432,0.0001684644405237588
0.43225,0.0001667702690541434
0.4325,0.00015813194434157436
0.43275,0.00014552814021638093
0.433,0.00013112507991381033
0.43325,0.0001182846019011676
0.4335,0.00010915994216473289
0.43375,0.00010570064467157267
0.434,0.00010863959371086454
0.43425,0.00011660550213921095
0.4345,0.00012803910093461522
0.43475,0.00014007000658815654
0.435,0.00015045152016105704
0.43525,0.0001566485599809425
0.4355,0.00015843100274213503
0.43575,0.00015501032504270385
0.436,0.00014713820017713607
0.43625,0.00013620614503768893
0.4365,0.0001241620837833466
0.43675,0.00011222238323341921
0.437,0.00010040635598154605
0.43725,8.902784865955673e-05
0.4375,7.720249542214181e-05
0.43775,6.428237292998348e-05
0.438,4.9253632019390895e-05
0.43825,3.166806523123302e-05
0.4385,1.2706332563625167e-05
0.43875,-6.213146054936484e-06
0.439,-2.2984343262549155e-05
0.43925,-3.526084399604309e-05
0.4395,-4.1111225442723395e-05
0.43975,-3.955771520322667e-05
0.44,-3.1060381643973684e-05
0.44025,-1.7297251940543806e-05
0.4405,-1.1157514073487804e-06
0.44075,1.4024606372162453e-05
0.441,2.4745164668681117e-05
0.44125,2.8465217152930287e-05
0.4415,2.3824621411087735e-05
0.44175,1.118219542982961e-05
0.442,-7.736968969661713e-06
0.44225,-2.9884170643672102e-05
0.4425,-5.185322718985023e-05
0.44275,-7.024887925259701e-05
0.443,-8.28577876241745e-05
0.44325,-8.801489372835773e-05
0.4435,-8.598988295990986e-05
0.44375,-7.86038906314602e-05
0.444,-6.730588986210733e-05
0.44425,-5.519421736983413e-05
0.4445,-4.393977392554924e-05
0.44475,-3.4717488453788714e-05
0.445,-2.8402916545883426e-05
0.44525,-2.4322484219102947e-05
0.4455,-2.1911167588950273e-05
0.44575,-1.960692966587761e-05
0.446,-1.7121405464372812e-05
0.44625,-1.4130141839391235e-05
0.4465,-1.1100223763042555e-05
0.44675,-9.243077573118447e-06
0.447,-9.727161419246347e-06
0.44725,-1.338801660399365e-05
0.4475,-2.0540954387695104e-05
0.44775,-3.0465762203010855e-05
0.448,-4.166322219025994e-05
0.44825,-5.176237711651249e-05
0.4485,-5.819066230722484e-05
0.44875,-5.860594680542795e-05
0.449,-5.1398069448775843e-05
0.44925,-3.6097735455884205e-05
0.4495,-1.3775900286545125e-05
0.44975,1.3358459416503002e-05
0.45,4.2117280778277016e-05
0.45025,6.922400333979568e-05
0.4505,9.150061641511314e-05
0.45075,0.00010711324241511115
0.451,0.00011441029977569091
0.45125,0.00011398842744552579
0.4515,0.00010699106251282112
0.45175,9.47744592790474e-05
0.452,8.016041393508035e-05
0.45225,6.513245302831167e-05
0.4525,5.110397491315394e-05
0.45275,3.9360944262761274e-05
0.453,3.018143725577092e-05
0.45325,2.329484710610079e-05
0.4535,1.8585332861851454e-05
0.45375,1.4759648989588831e-05
0.454,1.187665642408708e-05
0.45425,9.737118657386962e-06
0.4545,8.148199010537242e-06
0.45475,7.3740587268021155e-06
0.455,7.087700651386288e-06
0.45525,7.409163254692159e-06
0.4555,7.626113024989694e-06
0.45575,7.190425812669823e-06
0.456,4.770762008505064e-06
0.45625,-3.167071143611646e-07
0.4565,-9.33141722169888e-06
0.45675,-2.2378145726211e-05
0.457,-4.025790216851016e-05
0.45725,-6.178142889323048e-05
0.4575,-8.656664535810083e-05
0.45775,-0.00011157279184264795
0.458,-0.00013317345079178153
0.45825,-0.0001467982131213864
0.4585,-0.000146999911397909
0.45875,-0.00012811510955405644
0.459,-8.726779737759337e-05
0.45925,-2.026286390655204e-05
0.4595,7.095307638819905e-05
0.45975,0.00017920325397069393
0.46,0.0002918483756151578
0.46025,0.00039047582703987717
0.4605,0.00045441579801849656
0.46075,0.00046938819731293807
0.461,0.0004313749993969965
0.46125,0.0003470833337943927
0.4615,0.00023354379628365052
0.46175,0.00011368787099636222
0.462,3.534472698719416e-06
0.46225,-8.631826274735698e-05
0.4625,-0.00014910053025983717
0.46275,-0.0001833329475835374
0.463,-0.00019184703257896677
0.46325,-0.00017942239743547834
0.4635,-0.00015344140192348178
0.46375,-0.00012094753305193329
0.464,-8.724031599130361e-05
0.46425,-5.757582293324705e-05
0.4645,-3.3256405502926106e-05
0.46475,-1.5255911043001958e-05
0.465,-3.3952309262306444e-06
0.46525,2.6381914300429937e-06
0.4655,3.6524988062350274e-06
0.46575,8.815017604845359e-07
0.466,-4.147718145834051e-06
0.46625,-9.983900913876452e-06
0.4665,-1.5342582363924875e-05
0.46675,-1.949234751332604e-05
0.467,-2.2092203155628087e-05
0.46725,-2.3193185662681284e-05
0.4675,-2.271246169259636e-05
0.46775,-2.0535885094776597e-05
0.468,-1.6582862069331818e-05
0.46825,-1.0338339861691393e-05
0.4685,-1.371182157653089e-06
0.46875,1.1193510362385116e-05
0.469,2.7044836693756922e-05
0.46925,4.6886476508846275e-05
0.4695,6.915191402593449e-05
0.46975,9.258195734319726e-05
0.47,0.0001151160569496261
0.47025,0.00013412850539710095
0.4705,0.0001483399329197816
0.47075,0.00015519323791275485
0.471,0.00015481385714896203
0.47125,0.0001476018176327734
0.4715,0.00013556921290806682
0.47175,0.0001209857617296036
0.472,0.00010723946780322463
0.47225,9.693463934875946e-05
0.4725,9.1821510004847e-05
0.47275,9.317609566035228e-05
0.473,9.998220804531922e-05
0.47325,0.00011041362597622299
0.4735,0.0001229084436287157
0.47375,0.0001339096802259531
0.474,0.00014167566397775273
0.47425,0.00014457980719342775
0.4745,0.00014207016469309082
0.47475,0.00013522113557873228
0.475,0.0001247899767757124
0.47525,0.00011239217910868771
0.4755,9.955313000599947e-05
0.47575,8.677541894077374e-05
0.476,7.497826372105143e-05
0.47625,6.312088540937516e-05
0.4765,5.016637146378782e-05
0.47675,3.594367992549411e-05
0.477,1.9766501722952586e-05
0.47725,2.0530341962216855e-06
0.4775,-1.5968827323694507e-05
0.47775,-3.232102133366441e-05
0.478,-4.4881186800842446e-05
0.47825,-5.1689935651147366e-05
0.4785,-5.166957469279386e-05
0.47875,-4.473232980038847e-05
0.479,-3.227099717196072e-05
0.47925,-1.6710822205959245e-05
0.4795,-1.3834131494984447e-06
0.47975,1.0623012237832756e-05
0.48,1.6314908482786666e-05
0.48025,1.4383948176292756e-05
0.4805,4.677825393738692e-06
0.48075,-1.1335498032262663e-05
0.481,-3.1016768670257005e-05
0.48125,-5.134863384439256e-05
0.4815,-6.905387277188442e-05
0.48175,-8.11719022501302e-05
0.482,-8.696077146988455e-05
0.48225,-8.615356818164718e-05
0.4825,-8.022220843010898e-05
0.48275,-7.040304602916291e-05
0.483,-5.955994281096259e-05
0.48325,-4.903274509263912e-05
0.4835,-4.107139299475524e-05
0.48375,-3.533769655425562e-05
0.484,-3.217322009570412e-05
0.48425,-3.012975319596472e-05
0.4845,-2.8469597440763936e-05
0.48475,-2.6155606244552697e-05
0.485,-2.38639364869218e-05
0.48525,-2.1268216801991375e-05
0.4855,-1.9796728036499307e-05
0.48575,-2.0666947350570205e-05
0.486,-2.510413769917077e-05
0.48625,-3.2550977557544514e-05
0.4865,-4.296932969032012e-05
0.48675,-5.4807531347618945e-05
0.487,-6.522327478960864e-05
0.48725,-7.21051089463421e-05
0.4875,-7.274574820706545e-05
0.48775,-6.589901560582653e-05
0.488,-5.1060090203077594e-05
0.48825,-2.9456192757163852e-05
0.4885,-3.0711451339522347e-06
0.48875,2.493647701633814e-05
0.489,5.140376351196376e-05
0.48925,7.343441935651279e-05
0.4895,8.880268071890249e-05
0.48975,9.653483885476761e-05
0.49,9.702554827855088e-05
0.49025,9.152652666929497e-05
0.4905,8.171376762704699e-05
0.49075,6.925562030250585e-05
0.491,5.6767301574074266e-05
0.49125,4.5101877174289084e-05
0.4915,3.489321376726223e-05
0.49175,2.6343545935106443e-05
0.492,1.952572373109931e-05
0.49225,1.4164828318545548e-05
0.4925,9.680800142917371e-06
0.49275,6.116873732482295e-06
0.493,3.877115818971303e-06
0.49325,2.9313778441359108e-06
0.4935,3.684991916571422e-06
0.49375,5.724383908917938e-06
0.494,8.801423744824217e-06
0.49425,1.1780734399272106e-05
0.4945,1.3615025416418045e-05
0.49475,1.2552356270383903e-05
0.495,7.679839670513789e-06
0.49525,-2.3540539072883383e-06
0.4955,-1.702544908036762e-05
0.49575,-3.684102999585032e-05
0.496,-6.030870320375967e-05
0.49625,-8.693510346708771e-05
0.4965,-0.00011591205744738479
0.49675,-0.00014071831923522353
0.497,-0.0001543916345688155
0.49725,-0.00015164333850311592
0.4975,-0.00012906505373259938
0.49775,-8.524380524555007e-05
0.498,-1.9322281299731954e-05
0.49825,6.747691029678771e-05
0.4985,0.00017382948891410925
0.49875,0.00028547950808668497
0.499,0.00038112296648734747
0.49925,0.00044323516838948405
0.4995,0.00045882756672386296
0.49975,0.0004192528289929622
0.5,0.00033475150400512116
0.50025,0.0002243286341094269
0.5005,0.00010596177924392
0.50075,-3.322549298528971e-06
0.501,-9.099636798869259e-05
0.50125,-0.00015227832526812737
0.5015,-0.00018651714224525692
0.50175,-0.00019597062064294872
0.502,-0.00018418385405219022
0.50225,-0.00015839518329843636
0.5025,-0.0001266817564443859
0.50275,-9.34444970884951e-05
0.503,-6.240687352842171e-05
0.50325,-3.671980855721429e-05
0.5035,-1.7266459155313333e-05
0.50375,-4.263248122352241e-06
0.504,3.153482895837092e-06
0.50425,5.580649265540135e-06
0.5045,3.7544941754373366e-06
0.50475,-8.492431399507597e-07
0.505,-6.847481717144438e-06
0.50525,-1.2778032317787491e-05
0.5055,-1.7671438153019994e-05
0.50575,-2.0803382663871694e-05
0.506,-2.1900475911188222e-05
0.50625,-2.0715427740046817e-05
0.5065,-1.7333479674862427e-05
0.50675,-1.1565308495138494e-05
0.507,-3.143027354371016e-06
0.50725,8.306578053254502e-06
0.5075,2.325171643966898e-05
0.50775,4.1469395466731606e-05
0.508,6.267443849637674e-05
0.50825,8.59515997486159e-05
0.5085,0.0001092511107965499
0.50875,0.00013100750492572332
0.509,0.00014827357120647658
0.50925,0.000159992950129411
0.5095,0.00016408586207215713
0.50975,0.00016116664017214307
0.51,0.0001514444605013872
0.51025,0.0001380910188704097
0.5105,0.00012283097682404368
0.51075,0.00010974485480039464
0.511,0.00010057893067947637
0.51125,9.742979875527841e-05
0.5115,0.00010025120513379375
0.51175,0.00010860040684938778
0.512,0.00012014869872781892
0.51225,0.0001327046525671175
0.5125,0.0001434158323522279
0.51275,0.00015030715909095232
0.513,0.000152709912346424
0.51325,0.00014989615629245739
0.5135,0.00014276187867011923
0.51375,0.00013239304683752698
0.514,0.0001204557882354615
0.51425,0.00010743396004549593
0.5145,9.448663790298491e-05
0.51475,8.073380431104274e-05
0.515,6.646714979754763e-05
0.51525,5.0595363506581246e-05
0.5155,3.311469569328257e-05
0.51575,1.4085815824660277e-05
0.516,-5.185514986987754e-06
0.51625,-2.2813733847096758e-05
0.5165,-3.6648070784608066e-05
0.51675,-4.4712368433637984e-05
0.517,-4.56431317187409e-05
0.51725,-3.930150080354516e-05
0.5175,-2.682160622303092e-05
0.51775,-1.0592008728522963e-05
0.518,6.1977050899386515e-06
0.51825,2.0018392194396023e-05
0.5185,2.8019965603623732e-05
0.51875,2.820727855968418e-05
0.519,2.0304449319493173e-05
0.51925,5.4399831013145355e-06
0.5195,-1.3792332308053819e-05
0.51975,-3.423146010839259e-05
0.52,-5.254386044254386e-05
0.52025,-6.601684972609438e-05
0.5205,-7.313759120287504e-05
0.52075,-7.371192697808227e-05
0.521,-6.87158720407392e-05
0.52125,-6.003197733246596e-05
0.5215,-4.979647446813609e-05
0.52175,-4.008308907578122e-05
0.522,-3.207301830610403e-05
0.52225,-2.6352680357536454e-05
0.5225,-2.2450696922396874e-05
0.52275,-1.9666360314147216e-05
0.523,-1.6957726203986235e-05
0.52325,-1.3840684336633132e-05
0.5235,-1.0278918076591308e-05
0.52375,-7.044880864298035e-06
0.524,-5.249195745257024e-06
0.52425,-6.182700263681291e-06
0.5245,-1.065955511345309e-05
0.52475,-1.8891430910888402e-05
0.525,-2.9835215326190026e-05
0.52525,-4.173558414402194e-05
0.5255,-5.190377798295836e-05
0.52575,-5.770577208504376e-05
0.526,-5.676901310943553e-05
0.52625,-4.785828379878817e-05
0.5265,-3.0954512623829557e-05
0.52675,-7.546390651899773e-06
0.527,1.9811481105809743e-05
0.52725,4.7753675578813854e-05
0.5275,7.311249663818328e-05
0.52775,9.292273571042212e-05
0.528,0.00010581290145253954
0.52825,0.00011069808101605697
0.5285,0.0001087113287814935
0.52875,0.00010129198932965083
0.529,9.090859520876089e-05
0.52925,7.922692845641986e-05
0.5295,6.85032790774952e-05
0.52975,5.882164748885687e-05
0.53,5.143897633208976e-05
0.53025,4.547410052006171e-05
0.5305,4.059576450050418e-05
0.53075,3.682740767437796e-05
0.531,3.3541323823274466e-05
0.53125,3.0996231717069475e-05
0.5315,2.959840586304484e-05
0.53175,2.986770348462206e-05
0.532,3.176792578572524e-05
0.53225,3.4967311164183415e-05
0.5325,3.8535568264271654e-05
0.53275,4.122482398331624e-05
0.533,4.173285062228523e-05
0.53325,3.895878923095876e-05
0.5335,3.095851797378704e-05
0.53375,1.6650350137084018e-05
0.534,-3.6599282271312557e-06
0.53425,-2.8657325414710735e-05
0.5345,-5.615862799654301e-05
0.53475,-8.343384361760462e-05
0.535,-0.00010795893232692359
0.53525,-0.00012793969101375244
0.5355,-0.00013639686746889752
0.53575,-0.0001258616805819583
0.536,-9.248622855895045e-05
0.53625,-3.49941538533119e-05
0.5365,4.4615876589913645e-05
0.53675,0.00014182074239765146
0.537,0.0002494653543424461
0.53725,0.0003544714461628322
0.5375,0.0004344375781309425
0.53775,0.00047048023549384514
0.538,0.00045345392289021416
0.53825,0.0003849911711418815
0.5385,0.00028156822494424276
0.53875,0.00016415898202713054
0.539,5.0647654497206606e-05
0.53925,-4.53979361230753e-05
0.5395,-0.00011668593464339111
0.53975,-0.00015857223984731085
0.54,-0.00017399706533942526
0.54025,-0.00016937762267267188
0.5405,-0.0001501374985277765
0.54075,-0.00012172202458614432
0.541,-8.884886128384535e-05
0.54125,-5.636022091756975e-05
0.5415,-2.7152739297886297e-05
0.54175,-4.229970318464434e-06
0.542,1.2305368065381831e-05
0.54225,2.2365913433853614e-05
0.5425,2.6330735275972446e-05
0.54275,2.526087929963265e-05
0.543,2.092788550273701e-05
0.54325,1.5145376582555719e-05
0.5435,9.683489458197102e-06
0.54375,5.702649377221898e-06
0.544,4.079892298863822e-06
0.54425,5.056463380930075e-06
0.5445,8.485906415641614e-06
0.54475,1.3839240376542112e-05
0.545,2.082615670897551e-05
0.54525,2.926782608775028e-05
0.5455,3.9394383508235744e-05
0.54575,5.112485866692777e-05
0.546,6.579295291988946e-05
0.54625,8.296579450674527e-05
0.5465,0.00010250955994064905
0.54675,0.00012326417375735723
0.547,0.0001430063823883437
0.54725,0.000160150494500369
0.5475,0.0001724808023163988
0.54775,0.00017812657070961235
0.548,0.00017701819718905478
0.54825,0.00016967231203180976
0.5485,0.0001578329972471613
0.54875,0.00014444084712640553
0.549,0.00013167694869551272
0.54925,0.00012295739786820925
0.5495,0.0001199591306127151
0.54975,0.00012309587469266835
0.55,0.00013138418869421917
0.55025,0.0001425888888169299
0.5505,0.00015498161166916521
0.55075,0.0001653892173003367
0.551,0.00017186125601211048
0.55125,0.00017301613005257804
0.5515,0.0001685805478575777
0.55175,0.00015908235851370297
0.552,0.00014668937549457882
0.55225,0.00013221562028970364
0.5525,0.00011743484193109533
0.55275,0.00010332571688116321
0.553,8.932763329534908e-05
0.55325,7.574580141195838e-05
0.5535,6.166449184766101e-05
0.55375,4.647390069145963e-05
0.554,3.0733766491389814e-05
0.55425,1.5220792934182317e-05
0.5545,1.799423232435514e-06
0.55475,-8.1441614205392e-06
0.555,-1.2901713883171141e-05
0.55525,-1.1369431276221427e-05
0.5555,-3.824116701498781e-06
0.55575,8.42806873110676e-06
0.556,2.2955954167370864e-05
0.55625,3.675417597069973e-05
0.5565,4.674332060962514e-05
0.55675,5.0515824586857576e-05
0.557,4.680771011148528e-05
0.55725,3.585383973084727e-05
0.5575,1.9236469908713507e-05
0.55775,-3.66654311299175e-07
0.558,-1.9857854781373365e-05
0.55825,-3.6304735394990566e-05
0.5585,-4.74815316573724e-05
0.55875,-5.2478559745714895e-05
0.559,-5.1375521779117995e-05
0.55925,-4.545562318638155e-05
0.5595,-3.6452279590761604e-05
0.55975,-2.6269922839680306e-05
0.56,-1.645485461417506e-05
0.56025,-7.793099269563789e-06
0.5605,-5.015582173297097e-07
0.56075,5.718479142063758e-06
0.561,1.137662862670549e-05
0.56125,1.6708158415460556e-05
0.5615,2.161862931755222e-05
0.56175,2.5448679128225808e-05
0.562,2.7170093092112526e-05
0.56225,2.5784151024480295e-05
0.5625,2.0672470479659847e-05
0.56275,1.191032588964386e-05
0.563,5.961145425444547e-07
0.56325,-1.137638332024403e-05
0.5635,-2.140326890006435e-05
0.56375,-2.69587920485239e-05
0.564,-2.57313280978443e-05
0.56425,-1.6696766668051253e-05
0.5645,1.1492456527719104e-07
0.56475,2.2750732759523432e-05
0.565,4.943599585300908e-05
0.56525,7.581139087114944e-05
0.5655,9.957075631509495e-05
0.56575,0.00011844364587801183
0.566,0.0001303888437711883
0.56625,0.00013549193774489823
0.5665,0.0001345177613733741
0.56675,0.0001288197802932271
0.567,0.0001203884274708392
0.56725,0.00011057648589188858
0.5675,0.00010051542502279124
0.56775,9.067492701389813e-05
0.568,8.138360827521304e-05
0.56825,7.227277794145771e-05
0.5685,6.338876745863089e-05
0.56875,5.4609967496632266e-05
0.569,4.7012130888223786e-05
0.56925,4.080927833689013e-05
0.5695,3.762167486912957e-05
0.56975,3.7954271451293677e-05
0.57,4.180072868535982e-05
0.57025,4.8042989712101124e-05
0.5705,5.497385514620827e-05
0.57075,6.051853939901632e-05
0.571,6.22676780368953e-05
0.57125,5.8442881715254574e-05
0.5715,4.795544086371382e-05
0.57175,3.0999913215116055e-05
0.572,7.731906341850921e-06
0.57225,-2.0328763310792512e-05
0.5725,-5.0394212789690374e-05
0.57275,-7.882160491422686e-05
0.573,-0.00010171116904432025
0.57325,-0.00011498724248381679
0.5735,-0.00011303341767499664
0.57375,-9.095497290726861e-05
0.574,-4.685992190358251e-05
0.57425,1.9856078456642012e-05
0.5745,0.00010869587288017912
0.57475,0.00021759636857935922
0.575,0.000326946077116773
0.57525,0.0004154926212315454
0.5755,0.0004713653824614914
0.57575,0.0004832873207872079
0.576,0.00044245003143315425
0.57625,0.00035796645021245665
0.5765,0.0002476904797682764
0.57675,0.00013263608788738833
0.577,2.8143738056047605e-05
0.57725,-5.554496866440425e-05
0.5775,-0.00011385173647353795
0.57775,-0.00014589115956206676
0.578,-0.00015307818271231185
0.57825,-0.00014173382653242397
0.5785,-0.00011779182042387018
0.57875,-8.662486046843372e-05
0.579,-5.2489859235081345e-05
0.57925,-1.9336282468941276e-05
0.5795,9.968858637348671e-06
0.57975,3.402151621807014e-05
0.58,5.1835826960883825e-05
0.58025,6.234966684655806e-05
0.5805,6.544990937907575e-05
0.58075,6.21408010122917e-05
0.581,5.430628104178274e-05
0.58125,4.42921487061891e-05
0.5815,3.447772031480875e-05
0.58175,2.6731963755270517e-05
0.582,2.2239157038358695e-05
0.58225,2.1685945585212432e-05
0.5825,2.4964344015436736e-05
0.58275,3.146039769078923e-05
0.583,4.1019549899957555e-05
0.58325,5.288162606308984e-05
0.5835,6.680662237676236e-05
0.58375,8.288644495975061e-05
0.584,0.00010069826983499356
0.58425,0.00012035869799547838
0.5845,0.00014080441881256646
0.58475,0.00016065206084208507
0.585,0.0001782432894274218
0.58525,0.000191306228265722
0.5855,0.00019830742843579175
0.58575,0.00019847092687002514
0.586,0.00019181450274243384
0.58625,0.000179340446778403
0.5865,0.00016440733291791206
0.58675,0.0001490127997710838
0.587,0.00013677968966662178
0.58725,0.00013034091046473114
0.5875,0.000130005891238718
0.58775,0.00013600753891623824
0.588,0.00014681160710823605
0.58825,0.00015999080714352727
0.5885,0.00017260727089310233
0.58875,0.00018210780670705503
0.589,0.00018647511512101745
0.58925,0.00018574150322854868
0.5895,0.00017969325792267245
0.58975,0.00016975337727696555
0.59,0.00015683546434215603
0.59025,0.000142961497631398
0.5905,0.0001285055529916623
0.59075,0.00011435368528646932
0.591,9.943720271106974e-05
0.59125,8.342381634735754e-05
0.5915,6.642292359405624e-05
0.59175,4.869238112182873e-05
0.592,3.0851586562044595e-05
0.59225,1.5393953614694798e-05
0.5925,4.1426042667016465e-06
0.59275,-6.43991305173188e-07
0.593,1.9475071433689385e-06
0.59325,1.1895235880305259e-05
0.5935,2.7870638588675336e-05
0.59375,4.681353546365886e-05
0.594,6.514287822731304e-05
0.59425,7.90026044629859e-05
0.5945,8.532814412991389e-05
0.59475,8.236303639619312e-05
0.595,7.0253014268345e-05
0.59525,5.082081719701387e-05
0.5955,2.731905906583705e-05
0.59575,3.656368796340125e-06
0.596,-1.650514386981523e-05
0.59625,-3.030169756330101e-05
0.5965,-3.649023374481266e-05
0.59675,-3.526197451976307e-05
0.597,-2.8266036887744402e-05
0.59725,-1.7894680486905433e-05
0.5975,-6.654982704238099e-06
0.59775,3.4434984362432077e-06
0.598,1.128464040354685e-05
0.59825,1.6756323648468188e-05
0.5985,2.0728041187011835e-05
0.59875,2.4193727201718412e-05
0.599,2.8143866573293837e-05
0.59925,3.293027791564421e-05
0.5995,3.809105677409961e-05
0.59975,4.2308945844729066e-05
0.6,4.39725723590677e-05
0.60025,4.1698708556564814e-05
0.6005,3.4736161232095946e-05
0.60075,2.3548807249878616e-05
0.601,9.780745084667763e-06
0.60125,-3.787181896315812e-06
0.6015,-1.3983452250117035e-05
0.60175,-1.7842832725914644e-05
0.602,-1.3110268555506319e-05
0.60225,7.258696013188997e-07
0.6025,2.274503596034165e-05
0.60275,5.0059529625904497e-05
0.603,7.976834926717994e-05
0.60325,0.00010748914301567809
0.6035,0.00013016257337882496
0.60375,0.00014543151507197645
0.604,0.0001528480508779268
0.60425,0.00015214902822103718
0.6045,0.00014566795321019484
0.60475,0.00013561421393848113
0.605,0.00012401622528273684
0.60525,0.0001127377320855305
0.6055,0.00010318921588172153
0.60575,9.515798339560531e-05
0.606,8.804197570347883e-05
0.60625,8.178587658515233e-05
0.6065,7.564057172099859e-05
0.60675,6.949168634118503e-05
0.607,6.374962420660907e-05
0.60725,5.8645390871163464e-05
0.6075,5.530563274007684e-05
0.60775,5.382390911535799e-05
0.608,5.418570462703762e-05
0.60825,5.543304444821965e-05
0.6085,5.640268740242862e-05
0.60875,5.513424363345666e-05
0.609,5.0359988033546224e-05
0.60925,4.107490201173301e-05
0.6095,2.7281013375617036e-05
0.60975,9.369184119882868e-06
0.61,-1.2223939953851174e-05
0.61025,-3.59156678611427e-05
0.6105,-5.922889640216317e-05
0.61075,-7.932330973989831e-05
0.611,-9.295257705876485e-05
0.61125,-9.524861264346116e-05
0.6115,-8.139387607252076e-05
0.61175,-4.850578777841738e-05
0.612,5.788567710656924e-06
0.61225,8.326291396111967e-05
0.6125,0.00018229525732673925
0.61275,0.0002883953914269652
0.613,0.0003863051726837952
0.61325,0.00046080937848458727
0.6135,0.0004966889820470051
0.61375,0.00048075636124253934
0.614,0.00041308774682931315
0.61425,0.000314248323781767
0.6145,0.0002023280747491937
0.61475,9.300879335378474e-05
0.615,-1.869608333589551e-06
0.61525,-7.298869463675536e-05
0.6155,-0.00011708159540702368
0.61575,-0.00013531052514015624
0.616,-0.00013149461887066287
0.61625,-0.00010963473736082877
0.6165,-7.598064856454093e-05
0.61675,-3.884876534528689e-05
0.617,-3.85263974644492e-06
0.61725,2.5740548882847357e-05
0.6175,4.732424332274503e-05
0.61775,5.9464990374935577e-05
0.618,6.243121859085993e-05
0.61825,5.810212057900166e-05
0.6185,4.8758558361534034e-05
0.61875,3.73769534648379e-05
0.619,2.7077930585691098e-05
0.61925,2.0424785031165517e-05
0.6195,1.867667443838971e-05
0.61975,2.1801378990422958e-05
0.62,2.8442883620260986e-05
0.62025,3.671361720031032e-05
0.6205,4.4308220809600676e-05
0.62075,4.964939634443524e-05
0.621,5.2782478825079295e-05
0.62125,5.372316160426129e-05
0.6215,5.514326645780026e-05
0.62175,5.860779456365437e-05
0.622,6.65859783685488e-05
0.62225,7.984750652838561e-05
0.6225,9.852691249758483e-05
0.62275,0.00012055670322548342
0.623,0.0001427098297610982
0.62325,0.00016171734259643275
0.6235,0.00017514192998477286
0.62375,0.00018057395787610136
0.624,0.00017803696565270712
0.62425,0.0001693830686090177
0.6245,0.00015742812723098666
0.62475,0.00014639574789212937
0.625,0.00013985511558612605
0.62525,0.0001393533761391548
0.6255,0.0001462229444034255
0.62575,0.0001587623865102702
0.626,0.00017361410594998657
0.62625,0.00018780548671141006
0.6265,0.00019731734440085315
0.62675,0.00019949487786642247
0.627,0.00019376495606381673
0.62725,0.00018059035506452897
0.6275,0.00016314815897174292
0.62775,0.00014475294412107356
0.628,0.00012824759802059486
0.62825,0.00011679203441638557
0.6285,0.0001108984819763985
0.62875,0.00011015187771092061
0.629,0.00011238581016571975
0.62925,0.00011461403013589996
0.6295,0.00011435046362245508
0.62975,0.00010913968585264493
0.63,9.911756733393301e-05
0.63025,8.43936514551249e-05
0.6305,6.786508626018093e-05
0.63075,5.234599079927603e-05
0.631,3.9657715394601594e-05
0.63125,3.2483431723500815e-05
0.6315,3.0717351423996285e-05
0.63175,3.335290548410619e-05
0.632,3.8151177178880164e-05
0.63225,4.232151066461899e-05
0.6325,4.340837689990543e-05
0.63275,3.9701469316860946e-05
0.633,3.101889663437259e-05
0.63325,1.8458127260228944e-05
0.6335,4.344877809761649e-06
0.63375,-8.68592280807627e-06
0.634,-1.8071052324216076e-05
0.63425,-2.227308170633902e-05
0.6345,-2.097547814993561e-05
0.63475,-1.5241896559632237e-05
0.635,-7.148169458253287e-06
0.63525,7.871801007112446e-07
0.6355,6.26575383401665e-06
0.63575,7.730587105793447e-06
0.636,4.811345490785658e-06
0.63625,-1.7121186863952564e-06
0.6365,-1.0110443594200262e-05
0.63675,-1.8298032959960136e-05
0.637,-2.4314436816050346e-05
0.63725,-2.6920221900080917e-05
0.6375,-2.5764488768213683e-05
0.63775,-2.1499356536413158e-05
0.638,-1.538075588013403e-05
0.63825,-8.987617108176846e-06
0.6385,-3.5800693791464476e-06
0.63875,1.2845695116845111e-07
0.639,2.2640680354187712e-06
0.63925,3.04784923974044e-06
