Time,Modified_Signal
0.0,0.00041121132420913033
0.00025,0.0003588626055669856
0.0005,0.000282313072109588
0.00075,0.00019503229249873821
0.001,0.00010691680955330347
0.00125,2.8640432170471247e-05
0.0015,-3.392871296150033e-05
0.00175,-7.884171489881395e-05
0.002,-0.00010595258156104802
0.00225,-0.00011649100347448857
0.0025,-0.00011288872545651343
0.00275,-0.00010024544523789168
0.003,-8.288419376572772e-05
0.00325,-6.496832660312714e-05
0.0035,-4.89977525295363e-05
0.00375,-3.725867132231976e-05
0.004,-3.043933144370336e-05
0.00425,-2.8133564920713348e-05
0.0045,-2.928088815326779e-05
0.00475,-3.181298191948883e-05
0.005,-3.438356686529751e-05
0.00525,-3.6128145863405044e-05
0.0055,-3.628515825771164e-05
0.00575,-3.431504142560604e-05
0.006,-2.999238371222336e-05
0.00625,-2.333403555365065e-05
0.0065,-1.464497467754636e-05
0.00675,-4.5257907800782395e-06
0.007,6.277131238072636e-06
0.00725,1.7045799253279998e-05
0.0075,2.702301671658991e-05
0.00775,3.5500855823372926e-05
0.008,4.1990410293016626e-05
0.00825,4.612192650038865e-05
0.0085,4.7832055063896665e-05
0.00875,4.7300918279726914e-05
0.009,4.4936050206998963e-05
0.00925,4.137957215292868e-05
0.0095,3.735821223726382e-05
0.00975,3.363039809090801e-05
0.01,3.138645324391327e-05
0.01025,3.124122290721439e-05
0.0105,3.3783112354156616e-05
0.01075,3.901850818675611e-05
0.011,4.746445250593682e-05
0.01125,5.859375403740737e-05
0.0115,7.203731458651312e-05
0.01175,8.720588744555559e-05
0.012,0.00010297918583803489
0.01225,0.00011896727524821959
0.0125,0.00013433848266413277
0.01275,0.00014762017306870788
0.013,0.00015903091260681689
0.01325,0.00016777831815729404
0.0135,0.00017334533461612733
0.01375,0.00017619633052934033
0.014,0.00017622280549437012
0.01425,0.0001742965258635472
0.0145,0.0001705716264795745
0.01475,0.00016573517931490862
0.015,0.00016075873584863248
0.01525,0.0001554464779970563
0.0155,0.00015061559783289868
0.01575,0.00014616896414308255
0.016,0.00014260175442672415
0.01625,0.0001398689077539056
0.0165,0.00013811846072752819
0.01675,0.0001362595126593049
0.017,0.00013467437203871672
0.01725,0.0001325435332341096
0.0175,0.00013025406823031664
0.01775,0.00012666564433286
0.018,0.0001223721432347273
0.01825,0.00011679407737762768
0.0185,0.00010999722392039672
0.01875,0.00010242795891700655
0.019,9.431511955016936e-05
0.01925,8.624544917600925e-05
0.0195,7.770443354178869e-05
0.01975,6.934433394432809e-05
0.02,6.172693168651831e-05
0.02025,5.495106342066518e-05
0.0205,4.864040790273533e-05
0.02075,4.2768458290805825e-05
0.021,3.7921180791551534e-05
0.02125,3.337104713553794e-05
0.0215,2.904616655049531e-05
0.02175,2.4739770494112002e-05
0.022,2.0323301506731733e-05
0.02225,1.5650462990651115e-05
0.0225,1.0649413403171917e-05
0.02275,5.3268425052960345e-06
0.023,-2.1027862872114098e-07
0.02325,-5.783985032918395e-06
0.0235,-1.1145653004531739e-05
0.02375,-1.600216713766925e-05
0.024,-2.0133270465682662e-05
0.02425,-2.3285792181658458e-05
0.0245,-2.5253858630755807e-05
0.02475,-2.5963964859224834e-05
0.025,-2.538062834951602e-05
0.02525,-2.3583169823335544e-05
0.0255,-2.0768937487324646e-05
0.02575,-1.7221742959408554e-05
0.026,-1.3196486792217078e-05
0.02625,-9.109244240975904e-06
0.0265,-5.2437487711484886e-06
0.02675,-1.9605329718586894e-06
0.027,4.922941974580963e-07
0.02725,1.9110875065640447e-06
0.0275,2.156096741571015e-06
0.02775,1.1994736296964644e-06
0.028,-8.857951432217637e-07
0.02825,-3.997175137009514e-06
0.0285,-7.867393821977973e-06
0.02875,-1.2237629704414793e-05
0.029,-1.6832678663830185e-05
0.02925,-2.1338170637111643e-05
0.0295,-2.539280663364741e-05
0.02975,-2.875627737109218e-05
0.03,-3.11633899950942e-05
0.03025,-3.239341404997221e-05
0.0305,-3.238484601895588e-05
0.03075,-3.100853559589545e-05
0.031,-2.833033984475921e-05
0.03125,-2.4494249740742666e-05
0.0315,-1.9601526626029044e-05
0.03175,-1.3961387825078307e-05
0.032,-7.916563411872917e-06
0.03225,-1.7594229115811794e-06
0.0325,4.086872988417254e-06
0.03275,9.230065486356582e-06
0.033,1.3274876634871335e-05
0.03325,1.598956835039579e-05
0.0335,1.710083644329139e-05
0.03375,1.6489615105851186e-05
0.034,1.4182742597478718e-05
0.03425,1.0229035001298297e-05
0.0345,4.965603932839495e-06
0.03475,-1.281231932816332e-06
0.035,-8.03149026105713e-06
0.03525,-1.4713519540273607e-05
0.0355,-2.0729103715968462e-05
0.03575,-2.5526220694348758e-05
0.036,-2.8599325767832986e-05
0.03625,-2.956083263952327e-05
0.0365,-2.816923289363328e-05
0.03675,-2.4359055734094455e-05
0.037,-1.8244000531261894e-05
0.03725,-1.0121301509753623e-05
0.0375,-4.279001186885194e-07
0.03775,1.0202946324161597e-05
0.038,2.1250151008951483e-05
0.03825,3.194190134009272e-05
0.0385,4.1781031016890796e-05
0.03875,5.02717911932751e-05
0.039,5.711396192508974e-05
0.03925,6.222347477688181e-05
0.0395,6.578798007374795e-05
0.03975,6.784985667677742e-05
0.04,6.872895625091665e-05
0.04025,6.897710674663861e-05
0.0405,6.854910860700941e-05
0.04075,6.85829571609679e-05
0.041,6.931004476283215e-05
0.04125,7.132986284109953e-05
0.0415,7.458696685734995e-05
0.04175,7.931445824787909e-05
0.042,8.500891222287601e-05
0.04225,9.192444864636154e-05
0.0425,9.941854219059823e-05
0.04275,0.00010628604852058416
0.043,0.00011253896112397433
0.04325,0.00011678808279366862
0.0435,0.00011919224280107836
0.04375,0.0001184751208543371
0.044,0.0001148031274616677
0.04425,0.00010808688584339202
0.0445,9.928760788973257e-05
0.04475,8.867148278354733e-05
0.045,7.677824787021161e-05
0.04525,6.462368665293737e-05
0.0455,5.3131646685059225e-05
0.04575,4.214409833434643e-05
0.046,3.3357459751906236e-05
0.04625,2.6601627582480373e-05
0.0465,2.2040110493068375e-05
0.04675,1.9574534885591412e-05
0.047,1.9003676631343268e-05
0.04725,1.9747922574119858e-05
0.0475,2.117430147534863e-05
0.04775,2.2741416025926946e-05
0.048,2.373240712080562e-05
0.04825,2.3261406395036912e-05
0.0485,2.07496368321256e-05
0.04875,1.5802170736131517e-05
0.049,8.320034622695966e-06
0.04925,-1.6259467454082917e-06
0.0495,-1.3684901023665078e-05
0.04975,-2.7434936905389024e-05
0.05,-4.2256221974340164e-05
0.05025,-5.7824164806325834e-05
0.0505,-7.3851346184529e-05
0.05075,-8.548439009804418e-05
0.051,-8.863071013133288e-05
0.05125,-7.941200328939857e-05
0.0515,-5.568959582495839e-05
0.05175,-1.6598378980705497e-05
0.052,3.7538640366154e-05
0.05225,0.00010529635193082243
0.0525,0.00018425723142264332
0.05275,0.00027105516314197695
0.053,0.00035797005730286324
0.05325,0.00042974913377554917
0.0535,0.00047342155512120206
0.05375,0.00048384328380674365
0.054,0.0004557473394736634
0.05425,0.00039154622369014843
0.0545,0.0003065944152593335
0.05475,0.00020771765712380817
0.055,0.00011036212320511682
0.05525,2.3591587314467315e-05
0.0555,-4.569159678910028e-05
0.05575,-9.404336984448354e-05
0.056,-0.00011999059717264526
0.05625,-0.000124784204836136
0.0565,-0.00011403443921091431
0.05675,-9.260426937683096e-05
0.057,-6.529905490033157e-05
0.05725,-3.571717293776466e-05
0.0575,-7.902652117377987e-06
0.05775,1.565385775043954e-05
0.058,3.299511528600509e-05
0.05825,4.302204253002426e-05
0.0585,4.643218717538785e-05
0.05875,4.44601650135622e-05
0.059,3.8379319096948713e-05
0.05925,2.949561129011083e-05
0.0595,1.9336893224615928e-05
0.05975,9.257915177675036e-06
0.06,5.865255292676475e-07
0.06025,-5.7504611944521325e-06
0.0605,-9.039008214425416e-06
0.06075,-8.998449397348686e-06
0.061,-5.493113773417038e-06
0.06125,1.2462057741010316e-06
0.0615,1.071800732772004e-05
0.06175,2.2100705136930184e-05
0.062,3.454368892429805e-05
0.06225,4.7043736383858937e-05
0.0625,5.87622768582101e-05
0.06275,6.892748541292294e-05
0.063,7.676284031974144e-05
0.06325,8.280825237179226e-05
0.0635,8.660656485538629e-05
0.06375,8.825234721922467e-05
0.064,8.90262688145371e-05
0.06425,8.878940142270209e-05
0.0645,8.885535736395902e-05
0.06475,8.942701401451203e-05
0.065,9.18029727243534e-05
0.06525,9.613710550349359e-05
0.0655,0.00010221101551827635
0.06575,0.00011063306668645236
0.066,0.0001205010311995277
0.06625,0.0001317170847472864
0.0665,0.00014338541565945255
0.06675,0.00015516186106857008
0.067,0.00016608215547302138
0.06725,0.00017582068241080964
0.0675,0.00018285139203232125
0.06775,0.0001881860899209031
0.068,0.00019076668992602658
0.06825,0.00019107934946831814
0.0685,0.00018965061231465902
0.06875,0.0001863501642209745
0.069,0.00018219279944592403
0.06925,0.00017778971378446182
0.0695,0.00017370571706301188
0.06975,0.00017040978148159523
0.07,0.00016814610269173325
0.07025,0.00016702588892387142
0.0705,0.00016684552015982512
0.07075,0.0001673692729515259
0.071,0.00016838284125827318
0.07125,0.0001689587243636475
0.0715,0.00016880384472978585
0.07175,0.0001669620324024191
0.072,0.00016372626430971634
0.07225,0.00015822357532836915
0.0725,0.00015037079889680877
0.07275,0.0001402059567366614
0.073,0.0001287325439202526
0.07325,0.00011543642432591456
0.0735,0.00010192404858359985
0.07375,8.836907058883245e-05
0.074,7.498668994214877e-05
0.07425,6.330666152888826e-05
0.0745,5.3041281492955284e-05
0.07475,4.489549547258589e-05
0.075,3.8625491423078585e-05
0.07525,3.504863251122975e-05
0.0755,3.3322879597714276e-05
0.07575,3.297074616312771e-05
0.076,3.415740312588569e-05
0.07625,3.565616885381795e-05
0.0765,3.7574107553226995e-05
0.07675,3.905731040172831e-05
0.077,3.995562736036075e-05
0.07725,3.978357889790666e-05
0.0775,3.8514744522770296e-05
0.07775,3.607194597187168e-05
0.078,3.2611095537247686e-05
0.07825,2.8234714140051457e-05
0.0785,2.3386699267154586e-05
0.07875,1.8218679651246474e-05
0.079,1.3200353191459402e-05
0.07925,8.528819328961614e-06
0.0795,4.552056920649169e-06
0.07975,1.353188700342436e-06
0.08,-8.635636591334333e-07
0.08025,-2.166811081486899e-06
0.0805,-2.4871936300891194e-06
0.08075,-1.982150652995712e-06
0.081,-7.162216647687735e-07
0.08125,1.135677945530127e-06
0.0815,3.4134081899679013e-06
0.08175,5.922696721116603e-06
0.082,8.655631509962698e-06
0.08225,1.1283836784564671e-05
0.0825,1.3830904315707083e-05
0.08275,1.611536820915715e-05
0.083,1.805437369865413e-05
0.08325,1.9542020180164353e-05
0.0835,2.0491431520100032e-05
0.08375,2.079724695607292e-05
0.084,2.0449238874564708e-05
0.08425,1.9433785372629203e-05
0.0845,1.7752762350012445e-05
0.08475,1.542469885327137e-05
0.085,1.2673192281471194e-05
0.08525,9.59447007517361e-06
0.0855,6.478561439514195e-06
0.08575,3.4842544290086694e-06
0.086,9.11330097246752e-07
0.08625,-9.988243788461001e-07
0.0865,-2.027360367855633e-06
0.08675,-2.136211960184386e-06
0.087,-1.111622843433013e-06
0.08725,9.023519686872565e-07
0.0875,3.823538033814232e-06
0.08775,7.357509952877935e-06
0.088,1.125410048443066e-05
0.08825,1.5131264966561644e-05
0.0885,1.863608505457657e-05
0.08875,2.144668016584154e-05
0.089,2.3241053330055605e-05
0.08925,2.388746117175064e-05
0.0895,2.3290801563774505e-05
0.08975,2.1529654251030956e-05
0.09,1.8972122166246006e-05
0.09025,1.582709615986561e-05
0.0905,1.267130171943956e-05
0.09075,9.895395216581075e-06
0.091,8.046696649774239e-06
0.09125,7.5097641181533716e-06
0.0915,8.712031609750891e-06
0.09175,1.1754503433291904e-05
0.092,1.6747100700711134e-05
0.09225,2.3465292333222323e-05
0.0925,3.181645864280247e-05
0.09275,4.121097345121515e-05
0.093,5.1074259910144384e-05
0.09325,6.165011283273393e-05
0.0935,7.154511889161685e-05
0.09375,8.062849284658406e-05
0.094,8.87666497491289e-05
0.09425,9.480637886117927e-05
0.0945,9.979874160432215e-05
0.09475,0.00010332737988579237
0.095,0.00010571172716570595
0.09525,0.00010730598411435482
0.0955,0.00010845999729661248
0.09575,0.00010967473342369251
0.096,0.00011154467831630153
0.09625,0.00011429768637911988
0.0965,0.00011773359078268665
0.09675,0.00012144774770708671
0.097,0.00012565327515430704
0.09725,0.00012933379336676858
0.0975,0.0001321478698043352
0.09775,0.00013371303023798406
0.098,0.00013378389289489791
0.09825,0.00013125075652909365
0.0985,0.000126714244198823
0.09875,0.0001194675508568917
0.099,0.00010994108269844505
0.09925,9.865813764723568e-05
0.0995,8.551711226454038e-05
0.09975,7.183356506373527e-05
0.1,5.826283616509433e-05
0.10025,4.51550230501247e-05
0.1005,3.4269383506625714e-05
0.10075,2.570187507873202e-05
0.101,1.9537526561418613e-05
0.10125,1.6701793741394248e-05
0.1015,1.6686418932600103e-05
0.10175,1.9526611425105166e-05
0.102,2.511723708390322e-05
0.10225,3.1500038015466175e-05
0.1025,3.729960058545936e-05
0.10275,4.089771286510641e-05
0.103,4.145705514396659e-05
0.10325,3.801410693718754e-05
0.1035,3.047687243313253e-05
0.10375,1.8800797526249647e-05
0.104,3.951427683787509e-06
0.10425,-1.3316696131064322e-05
0.1045,-3.1071451628312304e-05
0.10475,-4.784135155982219e-05
0.105,-6.101219389784308e-05
0.10525,-6.460518522956072e-05
0.1055,-5.328574073403633e-05
0.10575,-2.442225084422353e-05
0.106,2.347583930550946e-05
0.10625,8.858381126913168e-05
0.1065,0.00016840402637768848
0.10675,0.0002565228862691318
0.107,0.0003457564314850797
0.10725,0.0004221886966455133
0.1075,0.00047195304177644374
0.10775,0.0004909237822922715
0.108,0.00046795163772189274
0.10825,0.0004132534241976948
0.1085,0.00033413132854385097
0.10875,0.00024186348104752501
0.109,0.0001471379439749566
0.10925,5.9659400398183256e-05
0.1095,-1.4801705601814381e-05
0.10975,-7.149287841987891e-05
0.11,-0.00010916384285939481
0.11025,-0.00012854154011053323
0.1105,-0.0001309327567725546
0.11075,-0.0001201943926343628
0.111,-0.0001015716218404412
0.11125,-7.764990547485932e-05
0.1115,-5.3033837912027684e-05
0.11175,-2.9260585855702568e-05
0.112,-8.838124258660975e-06
0.11225,7.5106663456506875e-06
0.1125,1.944096584261798e-05
0.11275,2.7796743599801528e-05
0.113,3.229286613801596e-05
0.11325,3.340588060382678e-05
0.1135,3.137411639599233e-05
0.11375,2.703374366252298e-05
0.114,2.1077460860856952e-05
0.11425,1.4531848889746654e-05
0.1145,8.298202943966974e-06
0.11475,3.2822332847518562e-06
0.115,1.4472323169696508e-07
0.11525,-5.671051988472419e-07
0.1155,1.3450913287636935e-06
0.11575,5.916646395049342e-06
0.116,1.2784784350109747e-05
0.11625,2.1545336989154742e-05
0.1165,3.14519200930962e-05
0.11675,4.178340126870896e-05
0.117,5.180495738381944e-05
0.11725,6.157203812102961e-05
0.1175,6.971282383948396e-05
0.11775,7.634806430089119e-05
0.118,8.206614859335943e-05
0.11825,8.646602276299783e-05
0.1185,8.972729721482779e-05
0.11875,9.253743430597234e-05
0.119,9.512579844755558e-05
0.11925,9.829418395430692e-05
0.1195,0.00010218132685811367
0.11975,0.00010736993308384942
0.12,0.00011336053369758314
0.12025,0.00012096723558857638
0.1205,0.00012909584989330506
0.12075,0.000138133805889718
0.121,0.0001469924879280037
0.12125,0.0001556929407883672
0.1215,0.00016386764348335432
0.12175,0.0001705864205721711
0.122,0.0001761506224805654
0.12225,0.00018022019842544747
0.1225,0.00018230980622739392
0.12275,0.0001834486715276983
0.123,0.0001833185634589225
0.12325,0.00018258424862780193
0.1235,0.00018175682736592565
0.12375,0.00018034279175097284
0.124,0.0001788961676526863
0.12425,0.00017809991863859638
0.1245,0.00017752029264520754
0.12475,0.00017697507029729956
0.125,0.00017632631535757277
0.12525,0.00017529590515949739
0.1255,0.00017294012921211267
0.12575,0.00016995848492996882
0.126,0.0001650215467377947
0.12625,0.00015859764651851262
0.1265,0.0001503040824567186
0.12675,0.00014044922480437814
0.127,0.00012955963413573875
0.12725,0.00011786663500929149
0.1275,0.00010562576577518651
0.12775,9.398850758836909e-05
0.128,8.259532496969235e-05
0.12825,7.29010981172966e-05
0.1285,6.478701909519693e-05
0.12875,5.815845826023609e-05
0.129,5.3049331940313276e-05
0.12925,4.994853976199801e-05
0.1295,4.7542114750938955e-05
0.12975,4.6119222387120854e-05
0.13,4.482733486968801e-05
0.13025,4.344517494710253e-05
0.1305,4.137441200979578e-05
0.13075,3.850921652597584e-05
0.131,3.457499061970705e-05
0.13125,2.9863243858623922e-05
0.1315,2.4304543161942493e-05
0.13175,1.848425790173305e-05
0.132,1.261086216769195e-05
0.13225,7.2883445900263185e-06
0.1325,2.7522980531283563e-06
0.13275,-4.5382641130171873e-07
0.133,-2.356635194347072e-06
0.13325,-2.815302255752094e-06
0.1335,-2.1021250543382183e-06
0.13375,-4.234793536124707e-07
0.134,1.6453587859452969e-06
0.13425,3.723179299065079e-06
0.1345,5.16807318272376e-06
0.13475,5.679881242045388e-06
0.135,4.813836001903116e-06
0.13525,2.584232156551508e-06
0.1355,-1.0530399706369038e-06
0.13575,-5.674078706126601e-06
0.136,-1.0907913226775294e-05
0.13625,-1.603601219618144e-05
0.1365,-2.04932361542906e-05
0.13675,-2.3506692315491293e-05
0.137,-2.4651926633447218e-05
0.13725,-2.349706629473484e-05
0.1375,-2.0025122232052532e-05
0.13775,-1.426075969759582e-05
0.138,-6.807529160954396e-06
0.13825,1.7810569110206992e-06
0.1385,1.0542609827877076e-05
0.13875,1.8591851408954405e-05
0.139,2.486823027797598e-05
0.13925,2.8674721128741906e-05
0.1395,2.93129248364457e-05
0.13975,2.6543372214770642e-05
0.14,2.039066640268e-05
0.14025,1.1316568921212586e-05
0.1405,7.962852983555682e-08
0.14075,-1.2272483309191171e-05
0.141,-2.4542150357016768e-05
0.14125,-3.5388317349587134e-05
0.1415,-4.3671947505745287e-05
0.14175,-4.844215908480308e-05
0.142,-4.905701161794432e-05
0.14225,-4.521483527278674e-05
0.1425,-3.72494830427289e-05
0.14275,-2.5720005885260454e-05
0.143,-1.174891894191482e-05
0.14325,3.4172714881910265e-06
0.1435,1.823208357964234e-05
0.14375,3.129261482093388e-05
0.144,4.121694583739646e-05
0.14425,4.705284895592187e-05
0.1445,4.812695911588112e-05
0.14475,4.438738637973975e-05
0.145,3.618509933677309e-05
0.14525,2.4470286667103837e-05
0.1455,1.046252877337981e-05
0.14575,-4.253333362806708e-06
0.146,-1.8083636459362524e-05
0.14625,-2.941571654889855e-05
0.1465,-3.694002583935706e-05
0.14675,-3.961688152743982e-05
0.147,-3.699949136720807e-05
0.14725,-2.9001997486826467e-05
0.1475,-1.6244501877734134e-05
0.14775,3.3955881922391804e-07
0.148,1.9463290439332337e-05
0.14825,3.954590672288797e-05
0.1485,5.911086213742786e-05
0.14875,7.65591622535375e-05
0.149,9.050369165354712e-05
0.14925,0.00010034569607376548
0.1495,0.00010543717972618134
0.14975,0.00010621021929512591
0.15,0.00010334956483191231
0.15025,9.757813307263994e-05
0.1505,9.015273010575367e-05
0.15075,8.293105711609875e-05
0.151,7.692860931523461e-05
0.15125,7.339845339591329e-05
0.1515,7.272960794488455e-05
0.15175,7.531234775160392e-05
0.152,8.055059620666236e-05
0.15225,8.835142446956062e-05
0.1525,9.726400841262044e-05
0.15275,0.00010579017337558455
0.153,0.00011319000179940515
0.15325,0.00011759344210627746
0.1535,0.00011776401216456251
0.15375,0.00011376913556972393
0.154,0.00010464155055966249
0.15425,9.054570683352732e-05
0.1545,7.240689194476442e-05
0.15475,5.220541102989303e-05
0.155,3.020178681841553e-05
0.15525,9.422955901643602e-06
0.1555,-9.152650943005515e-06
0.15575,-2.3430461373893725e-05
0.156,-3.260437320008665e-05
0.15625,-3.565033994833477e-05
0.1565,-3.303744524281857e-05
0.15675,-2.4775008669095694e-05
0.157,-1.2437119055475452e-05
0.15725,2.747256342864876e-06
0.1575,1.8410600774507136e-05
0.15775,3.279218413830183e-05
0.158,4.344506011297742e-05
0.15825,4.8906555030225646e-05
0.1585,4.7354677583975007e-05
0.15875,3.8359328273387657e-05
0.159,2.115353523328218e-05
0.15925,-3.322062048236443e-06
0.1595,-3.3739857835392805e-05
0.15975,-6.653958639527138e-05
0.16,-9.707409076161617e-05
0.16025,-0.00012135277723468415
0.1605,-0.00013490781905719213
0.16075,-0.00013361226893278318
0.161,-0.00011308597199441359
0.16125,-7.059507806356237e-05
0.1615,-6.513145235093973e-06
0.16175,7.759743046174906e-05
0.162,0.0001755071210682547
0.16225,0.00028017005962501884
0.1625,0.00037902061386567985
0.16275,0.000460361763005383
0.163,0.000508568607313367
0.16325,0.0005161016573581031
0.1635,0.0004852314340054912
0.16375,0.0004158140550894054
0.164,0.0003232964548096811
0.16425,0.0002175752366950137
0.1645,0.00011124653668303819
0.16475,1.3491972210701728e-05
0.165,-6.828206389360489e-05
0.16525,-0.0001301770969489573
0.1655,-0.00016972338704820928
0.16575,-0.00018749464426707406
0.166,-0.0001867493169480329
0.16625,-0.0001718825428337365
0.1665,-0.00014590987090711677
0.16675,-0.00011338810118917972
0.167,-7.858172067903563e-05
0.16725,-4.499650761905203e-05
0.1675,-1.6405546845471178e-05
0.16775,5.092449088853451e-06
0.168,1.9666218241750438e-05
0.16825,2.7115506604236328e-05
0.1685,2.8096897474234882e-05
0.16875,2.3354006911280813e-05
0.169,1.4438728763012521e-05
0.16925,2.76215009446615e-06
0.1695,-9.825395979610089e-06
0.16975,-2.1796560582837463e-05
0.17,-3.145029392984114e-05
0.17025,-3.761464904925688e-05
0.1705,-3.935102973001925e-05
0.17075,-3.649506319157203e-05
0.171,-2.9130507898581598e-05
0.17125,-1.808705853147104e-05
0.1715,-4.3465235006514445e-06
0.17175,1.0558916537699346e-05
0.172,2.534564005524421e-05
0.17225,3.849355533962593e-05
0.1725,4.897487857103896e-05
0.17275,5.586326155852237e-05
0.173,5.9102183645599966e-05
0.17325,5.853110293667631e-05
0.1735,5.515804424616809e-05
0.17375,5.027067061066791e-05
0.174,4.4554291179840934e-05
0.17425,3.9836143280225517e-05
0.1745,3.7130281846703635e-05
0.17475,3.8072149736448925e-05
0.175,4.290012606958751e-05
0.17525,5.225621321514103e-05
0.1755,6.580546079152664e-05
0.17575,8.313519955421484e-05
0.176,0.00010294663022997438
0.17625,0.00012364398343613572
0.1765,0.00014374938667263733
0.17675,0.0001621762324844781
0.177,0.0001767777769777489
0.17725,0.00018674163318142697
0.1775,0.000191780144831108
0.17775,0.00019116507700172659
0.178,0.00018572363996612835
0.17825,0.0001757842440164358
0.1785,0.00016288885497004163
0.17875,0.0001487731997246484
0.179,0.00013442521476077278
0.17925,0.00012140783970853842
0.1795,0.00011150591901572485
0.17975,0.00010479710196542007
0.18,0.00010246351030244311
0.18025,0.00010405398584913085
0.1805,0.00010948633871143623
0.18075,0.00011774095984271915
0.181,0.00012747982541165792
0.18125,0.00013735462551635997
0.1815,0.0001457407060373782
0.18175,0.00015194854324073997
0.182,0.00015426459048924229
0.18225,0.00015216279104821924
0.1825,0.00014519895176061517
0.18275,0.00013409625095539064
0.183,0.00011893215179892699
0.18325,0.00010071538982707725
0.1835,8.10712457427022e-05
0.18375,6.0841233999222914e-05
0.184,4.129657489926494e-05
0.18425,2.3658976416919692e-05
0.1845,9.025559581066082e-06
0.18475,-2.2989872003983012e-06
0.185,-9.780923202675156e-06
0.18525,-1.3809587132439771e-05
0.1855,-1.4622058136571503e-05
0.18575,-1.3073603500235801e-05
0.186,-1.0004737667629784e-05
0.18625,-6.345663122541945e-06
0.1865,-2.8779578393206798e-06
0.18675,-3.843762796665646e-07
0.187,7.424791539123161e-07
0.18725,1.9225445801507223e-07
0.1875,-1.9788630779410384e-06
0.18775,-5.620364967868514e-06
0.188,-1.0180643836510414e-05
0.18825,-1.5258978754270914e-05
0.1885,-2.028172677596073e-05
0.18875,-2.4836440584938342e-05
0.189,-2.8440939610107207e-05
0.18925,-3.1002864590811216e-05
0.1895,-3.24135043671198e-05
0.18975,-3.285945657232929e-05
0.19,-3.261507132839161e-05
0.19025,-3.207049820257568e-05
0.1905,-3.167106965202146e-05
0.19075,-3.1792227012410995e-05
0.191,-3.266185294493206e-05
0.19125,-3.456048518284131e-05
0.1915,-3.740232253897088e-05
0.19175,-4.098709538950102e-05
0.192,-4.496291530679263e-05
0.19225,-4.892708685894511e-05
0.1925,-5.2345369399640286e-05
0.19275,-5.474855036923355e-05
0.193,-5.569063967600418e-05
0.19325,-5.489918138453015e-05
0.1935,-5.2351559988378084e-05
0.19375,-4.8095922413938355e-05
0.194,-4.2498280061174e-05
0.19425,-3.603956698221524e-05
0.1945,-2.9335982068711085e-05
0.19475,-2.3057375896650615e-05
0.195,-1.7815066291788605e-05
0.19525,-1.4260094303951006e-05
0.1955,-1.2769661404660942e-05
0.19575,-1.351573408548871e-05
0.196,-1.6491865791689124e-05
0.19625,-2.1455441928576785e-05
0.1965,-2.7899044321786555e-05
0.19675,-3.5220193089325404e-05
0.197,-4.273283431087118e-05
0.19725,-4.965657106863119e-05
0.1975,-5.5362653276960816e-05
0.19775,-5.929171153409594e-05
0.198,-6.115767429863036e-05
0.19825,-6.0826158883366983e-05
0.1985,-5.837329939172445e-05
0.19875,-5.416699182203981e-05
0.199,-4.874129460596367e-05
0.19925,-4.261419378982912e-05
0.1995,-3.645242886081873e-05
0.19975,-3.084021517848277e-05
0.2,-2.628586575750058e-05
0.20025,-2.3061513103594564e-05
0.2005,-2.1330765582086578e-05
0.20075,-2.104570283268235e-05
0.201,-2.1922672111838266e-05
0.20125,-2.3574419946028606e-05
0.2015,-2.5489498372256816e-05
0.20175,-2.7210322236034316e-05
0.202,-2.8224663800270054e-05
0.20225,-2.8214870535903446e-05
0.2025,-2.6800170889192538e-05
0.20275,-2.4007580502613283e-05
0.203,-1.9817914071651368e-05
0.20325,-1.4503769499422457e-05
0.2035,-8.380552048839972e-06
0.20375,-1.9701784322692988e-06
0.204,4.401947968214144e-06
0.20425,1.0286662698623189e-05
0.2045,1.552159109720786e-05
0.20475,1.988100066200574e-05
0.205,2.3619769568576818e-05
0.20525,2.6783638523374136e-05
0.2055,2.9988456548950407e-05
0.20575,3.33913990591777e-05
0.206,3.746358034209594e-05
0.20625,4.29064477484462e-05
0.2065,4.9319502511315375e-05
0.20675,5.7158661930905125e-05
0.207,6.614982434457243e-05
0.20725,7.569409198808415e-05
0.2075,8.541189989182581e-05
0.20775,9.431484545856318e-05
0.208,0.0001015891931212003
0.20825,0.00010689041900588248
0.2085,0.00010849812917389992
0.20875,0.00010674084419729278
0.209,0.00010091165787823705
0.20925,9.109360634630618e-05
0.2095,7.790803286276191e-05
0.20975,6.157242796591116e-05
0.21,4.3392533987567563e-05
0.21025,2.4477256284931563e-05
0.2105,6.08589616337831e-06
0.21075,-1.0625099439119537e-05
0.211,-2.448160492181931e-05
0.21125,-3.468697751384526e-05
0.2115,-4.079299586090029e-05
0.21175,-4.272407924428298e-05
0.212,-4.069503905753153e-05
0.21225,-3.524720554859857e-05
0.2125,-2.7344806008493e-05
0.21275,-1.80653983245666e-05
0.213,-8.745958439555658e-06
0.21325,-6.609288342996028e-07
0.2135,4.988322721085784e-06
0.21375,7.233731124935658e-06
0.214,5.275084065250628e-06
0.21425,-9.578202573794225e-07
0.2145,-1.1855826742182266e-05
0.21475,-2.6975465094211033e-05
0.215,-4.7038906506350805e-05
0.21525,-7.426568686323962e-05
0.2155,-0.00010280142123637054
0.21575,-0.0001278094882355369
0.216,-0.0001445702915097436
0.21625,-0.00015061125166633245
0.2165,-0.00014306555439930983
0.21675,-0.000120588181501397
0.217,-8.324047381912614e-05
0.21725,-3.1848048260008495e-05
0.2175,3.2609415512629145e-05
0.21775,0.00010726432932045419
0.218,0.00018919688834773168
0.21825,0.00027502409481321263
0.2185,0.00035770638705530264
0.21875,0.00041937470092385035
0.219,0.0004506685160987478
0.21925,0.00044630189789899807
0.2195,0.0004060426531720629
0.21975,0.0003372899757852064
0.22,0.00024759914589507763
0.22025,0.00015170147519729006
0.2205,6.034168870052342e-05
0.22075,-1.753770917180848e-05
0.221,-7.711076639718589e-05
0.22125,-0.00011577086776762255
0.2215,-0.0001347426463410961
0.22175,-0.00013528557393686918
0.222,-0.00012334804952330924
0.22225,-0.00010360357110165451
0.2225,-8.060321207102423e-05
0.22275,-5.7962836983590805e-05
0.223,-3.881105007608724e-05
0.22325,-2.4371520513096046e-05
0.2235,-1.6191539572184758e-05
0.22375,-1.3385600969269333e-05
0.224,-1.504781646288817e-05
0.22425,-1.9250771273255573e-05
0.2245,-2.508007330856348e-05
0.22475,-3.074421189992118e-05
0.225,-3.5400478549418415e-05
0.22525,-3.771261272581565e-05
0.2255,-3.7319217855570755e-05
0.22575,-3.369908847546116e-05
0.226,-2.716144531117013e-05
0.22625,-1.7980813680068074e-05
0.2265,-7.206672442437389e-06
0.22675,4.571204648048882e-06
0.227,1.6193351256709305e-05
0.22725,2.6951914870321556e-05
0.2275,3.57685866524831e-05
0.22775,4.229415179687163e-05
0.228,4.5898176305336195e-05
0.22825,4.685845868894979e-05
0.2285,4.5137511987692265e-05
0.22875,4.171995138503278e-05
0.229,3.7020346715996694e-05
0.22925,3.2444921401268966e-05
0.2295,2.8568310735095415e-05
0.22975,2.6636859787170852e-05
0.23,2.7690620602990985e-05
0.23025,3.1560126010275385e-05
0.2305,3.88137594038625e-05
0.23075,4.9585939795379e-05
0.231,6.296220863607303e-05
0.23125,7.863032128582113e-05
0.2315,9.526740577869809e-05
0.23175,0.0001120031098714963
0.232,0.0001278988622130796
0.23225,0.00014178898992971004
0.2325,0.00015293921562504705
0.23275,0.00016095074257934576
0.233,0.00016554504938604505
0.23325,0.0001668682369007033
0.2335,0.00016473572797475516
0.23375,0.000160287566726276
0.234,0.00015419028992796186
0.23425,0.00014718777412451282
0.2345,0.00013995163429426333
0.23475,0.00013353140356026354
0.235,0.00012798620306238447
0.23525,0.0001240004943828973
0.2355,0.00012184375709943424
0.23575,0.00012081564234086965
0.236,0.00012115003241600662
0.23625,0.00012247175385015255
0.2365,0.0001235041615642661
0.23675,0.00012428379246236652
0.237,0.00012412749401738356
0.23725,0.00012225981101264785
0.2375,0.00011880405182268858
0.23775,0.00011324652346918783
0.238,0.00010587495457907366
0.23825,9.650417124177924e-05
0.2385,8.59784738388989e-05
0.23875,7.453980048808706e-05
0.239,6.27390986705786e-05
0.23925,5.119733316846327e-05
0.2395,4.052615933627192e-05
0.23975,3.0759249044985936e-05
0.24,2.2560812689063825e-05
0.24025,1.5594254237394924e-05
0.2405,1.0148806381762369e-05
0.24075,5.922780881197397e-06
0.241,2.8053986361525455e-06
0.24125,3.718536056671066e-07
0.2415,-1.6136244245290498e-06
0.24175,-3.5144159800859926e-06
0.242,-5.526417675148096e-06
0.24225,-7.857340335503084e-06
0.2425,-1.0511139051645911e-05
0.24275,-1.3513929049349204e-05
0.243,-1.6692736680380267e-05
0.24325,-1.99432867150157e-05
0.2435,-2.3010740133951778e-05
0.24375,-2.5777540973933124e-05
0.244,-2.8002409376866987e-05
0.24425,-2.9651861506050053e-05
0.2445,-3.067594034280161e-05
0.24475,-3.108900957157135e-05
0.245,-3.0995442823879125e-05
0.24525,-3.053034982702086e-05
0.2455,-2.9892184777869537e-05
0.24575,-2.920732381077731e-05
0.246,-2.867953478875437e-05
0.24625,-2.841028234643961e-05
0.2465,-2.843760212727394e-05
0.24675,-2.8835954068452114e-05
0.247,-2.945190272542833e-05
0.24725,-3.0269087889010066e-05
0.2475,-3.1160594849675403e-05
0.24775,-3.195685400633304e-05
0.248,-3.2500766184850134e-05
0.24825,-3.28043633271082e-05
0.2485,-3.267161408382807e-05
0.24875,-3.2213128126597e-05
0.249,-3.145017954770463e-05
0.24925,-3.0448177172126485e-05
0.2495,-2.935566505764828e-05
0.24975,-2.830046939785276e-05
0.25,-2.740137962600007e-05
0.25025,-2.6756103508786353e-05
0.2505,-2.6414987356209956e-05
0.25075,-2.6384073891259414e-05
0.251,-2.661719600930136e-05
0.25125,-2.7022830582805245e-05
0.2515,-2.7487046103794207e-05
0.25175,-2.786605088445656e-05
0.252,-2.8067907857509026e-05
0.25225,-2.79883489108444e-05
0.2525,-2.7521291097630426e-05
0.25275,-2.6730868407938112e-05
0.253,-2.5649276833893955e-05
0.25325,-2.441831773938847e-05
0.2535,-2.3153676354524467e-05
0.25375,-2.2024181905960175e-05
0.254,-2.122892433575419e-05
0.25425,-2.0881208771929908e-05
0.2545,-2.1024848916195607e-05
0.25475,-2.1694983313690597e-05
0.255,-2.2770143633950623e-05
0.25525,-2.4088647831318047e-05
0.2555,-2.5496039389879817e-05
0.25575,-2.6631316372036207e-05
0.256,-2.7233690945291157e-05
0.25625,-2.700876037206321e-05
0.2565,-2.578384090164495e-05
0.25675,-2.3349689947838143e-05
0.257,-1.9759828803600286e-05
0.25725,-1.4946385730680014e-05
0.2575,-9.197588987478263e-06
0.25775,-2.696335623682655e-06
0.258,4.257545104644086e-06
0.25825,1.1253432239056554e-05
0.2585,1.7982842336575133e-05
0.25875,2.417064063633161e-05
0.259,2.953780334001716e-05
0.25925,3.4091070869978176e-05
0.2595,3.774146121641354e-05
0.25975,4.081434646039803e-05
0.26,4.352847751521386e-05
0.26025,4.6060678825261847e-05
0.2605,4.889371944244246e-05
0.26075,5.216121175070008e-05
0.261,5.645602604906599e-05
0.26125,6.192228393667755e-05
0.2615,6.819887083297485e-05
0.26175,7.526091690615858e-05
0.262,8.29239866315684e-05
0.26225,9.006612910537968e-05
0.2625,9.695513090790509e-05
0.26275,0.00010220275329735038
0.263,0.00010564961235628707
0.26325,0.00010667778633472187
0.2635,0.00010445755305564647
0.26375,9.949932710217747e-05
0.264,9.131081181611828e-05
0.26425,8.040318874360665e-05
0.2645,6.724887336893855e-05
0.26475,5.254931303865938e-05
0.265,3.740594783688673e-05
0.26525,2.2666756828634793e-05
0.2655,9.135928343578813e-06
0.26575,-2.2737358720464407e-06
0.266,-1.1004576721234203e-05
0.26625,-1.660517641868743e-05
0.2665,-1.90314175039014e-05
0.26675,-1.8406398181295854e-05
0.267,-1.5202872859753491e-05
0.26725,-1.0095133646688487e-05
0.2675,-3.9825053435761366e-06
0.26775,2.2519499379907907e-06
0.268,7.721766537074632e-06
0.26825,1.1351153754540011e-05
0.2685,1.2042765029369589e-05
0.26875,9.167443141668274e-06
0.269,2.1610181769481496e-06
0.26925,-8.88683300943785e-06
0.2695,-2.3815794652533305e-05
0.26975,-4.2205597611665415e-05
0.27,-6.291660251679231e-05
0.27025,-8.270419523911102e-05
0.2705,-9.752061595220413e-05
0.27075,-0.00010372158554855901
0.271,-9.885663813671058e-05
0.27125,-7.963773496444179e-05
0.2715,-4.3782238043953664e-05
0.27175,9.929580636647759e-06
0.272,8.199062469641449e-05
0.27225,0.0001673630604789327
0.2725,0.0002569508692359514
0.27275,0.00034104432717442865
0.273,0.00040998602661784507
0.27325,0.0004527100778932387
0.2735,0.0004574302293005549
0.27375,0.00042165571558872765
0.274,0.000356921332810367
0.27425,0.00027294776264523245
0.2745,0.00017924736950500643
0.27475,8.648208557946909e-05
0.275,5.587613357788513e-06
0.27525,-5.728393226224074e-05
0.2755,-0.00010095884320437409
0.27575,-0.0001252438312897613
0.276,-0.00013178117810087265
0.27625,-0.00012342175042990005
0.2765,-0.0001052547146193418
0.27675,-8.219109962674771e-05
0.277,-5.75342382063595e-05
0.27725,-3.475473534736749e-05
0.2775,-1.5911561636000142e-05
0.27775,-2.2293795281903165e-06
0.278,6.139062757349072e-06
0.27825,9.954066001969257e-06
0.2785,1.0496394816359487e-05
0.27875,8.34042107650618e-06
0.279,4.293529768118955e-06
0.27925,-8.484676866396209e-07
0.2795,-6.032565304245822e-06
0.27975,-1.050729193374982e-05
0.28,-1.333743195527625e-05
0.28025,-1.4133798305677946e-05
0.2805,-1.2407920198319475e-05
0.28075,-8.17593991439323e-06
0.281,-1.3559992359408428e-06
0.28125,7.5218086594298e-06
0.2815,1.8000664584279942e-05
0.28175,2.918892674969338e-05
0.282,4.046420420916747e-05
0.28225,5.084807394588511e-05
0.2825,5.987571702361773e-05
0.28275,6.666440787949394e-05
0.283,7.146473930271252e-05
0.28325,7.394513363700462e-05
0.2835,7.421256020349319e-05
0.28375,7.302384904805363e-05
0.284,7.122716041112967e-05
0.28425,6.926651526288566e-05
0.2845,6.82073549197638e-05
0.28475,6.880466186690806e-05
0.285,7.171546848938855e-05
0.28525,7.695681543496227e-05
0.2855,8.52597860173784e-05
0.28575,9.63040871187226e-05
0.286,0.00010934822474219517
0.28625,0.00012427465437340378
0.2865,0.0001401613381684834
0.28675,0.00015582988535692112
0.287,0.00016994647079460857
0.28725,0.00018250136123113984
0.2875,0.00019185849789012994
0.28775,0.000197998257898111
0.288,0.00019984185759913263
0.28825,0.00019864394549937929
0.2885,0.00019350476246887533
0.28875,0.0001859676385933918
0.289,0.00017573986464961211
0.28925,0.0001644288549540319
0.2895,0.0001523628327341625
0.28975,0.00014101826773359
0.29,0.00013113590064583382
0.29025,0.00012313024202399036
0.2905,0.00011720566410523585
0.29075,0.00011406549837781834
0.291,0.00011263978319384894
0.29125,0.00011306366827213725
0.2915,0.00011460379556062573
0.29175,0.00011661846433117041
0.292,0.00011813103002252784
0.29225,0.00011843916093495918
0.2925,0.00011694105254670133
0.29275,0.00011357980465491913
0.293,0.00010769444834180453
0.29325,9.921499044487312e-05
0.2935,8.876825732751975e-05
0.29375,7.647197989695245e-05
0.294,6.337894308509894e-05
0.29425,4.999069631530135e-05
0.2945,3.700671734531829e-05
0.29475,2.501428736723764e-05
0.295,1.4877701163567576e-05
0.29525,6.845016152294796e-06
0.2955,1.2391280900394865e-06
0.29575,-2.019048544057163e-06
0.296,-3.0204142983822316e-06
0.29625,-2.18565012187699e-06
0.2965,-2.231858473076457e-08
0.29675,2.957397546469857e-06
0.297,6.153899390117142e-06
0.29725,8.971102031167653e-06
0.2975,1.099915278784121e-05
0.29775,1.188960127122557e-05
0.298,1.1479262397204689e-05
0.29825,9.773076092656547e-06
0.2985,6.929430396176901e-06
0.29875,3.259966208457199e-06
0.299,-8.66003992413112e-07
0.29925,-4.972803830180248e-06
0.2995,-8.61248981643397e-06
0.29975,-1.1380486543471723e-05
0.3,-1.3050041113378373e-05
0.30025,-1.3369732878159078e-05
0.3005,-1.2341613872502238e-05
0.30075,-1.0133691923589225e-05
0.301,-6.979410350969135e-06
0.30125,-3.258885666303157e-06
0.3015,6.210065161947685e-07
0.30175,4.174975392216078e-06
0.302,6.986227569896836e-06
0.30225,8.703358801824955e-06
0.3025,9.089739073880913e-06
0.30275,8.05831881805485e-06
0.303,5.671219985443304e-06
0.30325,2.1655767314343823e-06
0.3035,-2.114727856989381e-06
0.30375,-6.691592841437963e-06
0.304,-1.1073818243515103e-05
0.30425,-1.4717283493664302e-05
0.3045,-1.7182766785280367e-05
0.30475,-1.808807317768942e-05
0.305,-1.724097423884412e-05
0.30525,-1.4571335333357131e-05
0.3055,-1.0244368561019109e-05
0.30575,-4.553395885620542e-06
0.306,2.016830050364885e-06
0.30625,8.910246100059669e-06
0.3065,1.5470507400413622e-05
0.30675,2.1102036838734214e-05
0.307,2.5228119340037337e-05
0.30725,2.7422551605300366e-05
0.3075,2.7398833777798978e-05
0.30775,2.5112432766595657e-05
0.308,2.0702130501916344e-05
0.30825,1.4559449781204493e-05
0.3085,7.22436113501076e-06
0.30875,-6.023432613882971e-07
0.309,-8.165418687769051e-06
0.30925,-1.4671707587789128e-05
0.3095,-1.9424640168631107e-05
0.30975,-2.1795748808703402e-05
0.31,-2.1434265682726472e-05
0.31025,-1.8082369125329475e-05
0.3105,-1.1885040730599709e-05
0.31075,-3.1020603274691856e-06
0.311,7.801622972739998e-06
0.31125,2.0088335305209323e-05
0.3115,3.298889635820157e-05
0.31175,4.5804348966530264e-05
0.312,5.76907435566246e-05
0.31225,6.806469427724418e-05
0.3125,7.643021031697043e-05
0.31275,8.24082394873989e-05
0.313,8.601356166338905e-05
0.31325,8.74849104506984e-05
0.3135,8.748809493922105e-05
0.31375,8.622035283765121e-05
0.314,8.419026551691202e-05
0.31425,8.259059673114774e-05
0.3145,8.146960570776234e-05
0.31475,8.15504686220105e-05
0.315,8.320430865084734e-05
0.31525,8.673554646373403e-05
0.3155,9.140367920802727e-05
0.31575,9.741076637062888e-05
0.316,0.00010444735145233558
0.31625,0.00011094575972508874
0.3165,0.00011709109921445625
0.31675,0.00012180090035191715
0.317,0.00012427779166396873
0.31725,0.00012428448053701838
0.3175,0.00012120869462537429
0.31775,0.00011547492151439795
0.318,0.00010654292654757797
0.31825,9.614318879533001e-05
0.3185,8.36915339093772e-05
0.31875,7.01924849461568e-05
0.319,5.6534767990152055e-05
0.31925,4.379183951985188e-05
0.3195,3.2478566148270154e-05
0.31975,2.304067345922745e-05
0.32,1.5998342535611025e-05
0.32025,1.157085940851309e-05
0.3205,9.516734642556903e-06
0.32075,9.702912012694699e-06
0.321,1.1462400848964447e-05
0.32125,1.432848914621072e-05
0.3215,1.741031998691001e-05
0.32175,2.0045148398694133e-05
0.322,2.0957860160556327e-05
0.32225,1.936013326762784e-05
0.3225,1.451463628874228e-05
0.32275,6.281194058299617e-06
0.323,-5.483726186556452e-06
0.32325,-2.020905983565375e-05
0.3235,-3.591396899647546e-05
0.32375,-4.9064285872894655e-05
0.324,-5.669597749703067e-05
0.32425,-5.5109976113855675e-05
0.3245,-4.126597254729267e-05
0.32475,-1.1313520403732771e-05
0.325,3.566843511392671e-05
0.32525,0.00010055348074519894
0.3255,0.00017899590265009474
0.32575,0.0002652389585941658
0.326,0.0003494699857298576
0.32625,0.00042185146615229536
0.3265,0.0004656764532559417
0.32675,0.00047220910370164814
0.327,0.00044297247327168765
0.32725,0.0003853091957554813
0.3275,0.0003060132554742719
0.32775,0.00021205313333823916
0.328,0.00011747900397996973
0.32825,3.318165557901718e-05
0.3285,-3.432375665792535e-05
0.32875,-8.430087343185866e-05
0.329,-0.00011513561064938319
0.32925,-0.00012815861125540037
0.3295,-0.00012519767699945776
0.32975,-0.0001100253782620005
0.33,-8.76736553615828e-05
0.33025,-6.221505200855157e-05
0.3305,-3.654650665399462e-05
0.33075,-1.3794104935822168e-05
0.331,5.107310149400715e-06
0.33125,1.8723970064716146e-05
0.3315,2.7763810069644744e-05
0.33175,3.257152896620942e-05
0.332,3.4053700288465455e-05
0.33225,3.23292937762558e-05
0.3325,2.831711500358892e-05
0.33275,2.2603139726671196e-05
0.333,1.6232220395154146e-05
0.33325,9.821198916541175e-06
0.3335,4.403997086303225e-06
0.33375,3.9606128903922565e-07
0.334,-1.4137313011627795e-06
0.33425,-8.510167662377029e-07
0.3345,2.5159110859451136e-06
0.33475,8.346896883211573e-06
0.335,1.6605244171689464e-05
0.33525,2.663518102094223e-05
0.3355,3.8149649912025906e-05
0.33575,4.977094076450323e-05
0.336,6.15178450045335e-05
0.33625,7.260852378446154e-05
0.3365,8.22047254430694e-05
0.33675,9.04724077720788e-05
0.337,9.69899201449181e-05
0.33725,0.00010209422246153489
0.3375,0.0001055277296345367
0.33775,0.00010788998007710027
0.338,0.00010955128475447622
0.33825,0.00011109183474772156
0.3385,0.00011289512337608323
0.33875,0.0001149583322156037
0.339,0.0001182445178560758
0.33925,0.00012268386659124053
0.3395,0.00012841997716026894
0.33975,0.00013509183436629957
0.34,0.00014310287242456584
0.34025,0.00015106476449197126
0.3405,0.00015955884169712874
0.34075,0.00016786967515299088
0.341,0.00017559968152540628
0.34125,0.00018252600282172237
0.3415,0.00018814876640108007
0.34175,0.00019242327057923263
0.342,0.00019530827538795072
0.34225,0.00019677509553531712
0.3425,0.00019703473129582485
0.34275,0.00019581262549111278
0.343,0.00019349318092709187
0.34325,0.00019062905106637356
0.3435,0.00018660173804999736
0.34375,0.00018223943839258612
0.344,0.00017683533321121475
0.34425,0.00017083499969181113
0.3445,0.00016451094028447467
0.34475,0.0001572368355037056
0.345,0.00014944624264795383
0.34525,0.00014073380023365084
0.3455,0.00013245127242081907
0.34575,0.00012320753082843575
0.346,0.00011417058987291868
0.34625,0.000105197163287785
0.3465,9.669215792836359e-05
0.34675,8.866994996367878e-05
0.347,8.136876899399813e-05
0.34725,7.548961911357267e-05
0.3475,6.984189012083632e-05
0.34775,6.553561797922431e-05
0.348,6.195393498870302e-05
0.34825,5.8759075769589656e-05
0.3485,5.600658678479559e-05
0.34875,5.331867399191582e-05
0.349,5.050050727962094e-05
0.34925,4.726320026790775e-05
0.3495,4.343908437391761e-05
0.34975,3.9054309728986974e-05
0.35,3.4089259002072785e-05
0.35025,2.8700405818347717e-05
0.3505,2.3119165721569832e-05
0.35075,1.7552368358917002e-05
0.351,1.2341129397873756e-05
0.35125,7.75950263200582e-06
0.3515,3.99939638719277e-06
0.35175,1.2461436263941662e-06
0.352,-4.117741344289599e-07
0.35225,-1.0089568928851544e-06
0.3525,-6.39250053561964e-07
0.35275,4.5109540700354237e-07
0.353,2.060209652207982e-06
0.35325,3.836938155114323e-06
0.3535,5.524074523810049e-06
0.35375,6.846602246945436e-06
0.354,7.667948066623955e-06
0.35425,7.804507524236584e-06
0.3545,7.3721027800303285e-06
0.35475,6.421732075964567e-06
0.355,5.202612701347227e-06
0.35525,3.899288392670073e-06
0.3555,2.8280242986418753e-06
0.35575,2.171531714140676e-06
0.356,2.171097728153677e-06
0.35625,2.829952155976053e-06
0.3565,4.23312714994366e-06
0.35675,6.149699316937702e-06
0.357,8.379270654480789e-06
0.35725,1.060588745474413e-05
0.3575,1.2483727334345772e-05
0.35775,1.367149298341834e-05
0.358,1.3826330387998716e-05
0.35825,1.2783729621316075e-05
0.3585,1.05778857385696e-05
0.35875,7.2242148097787215e-06
0.359,3.0049002962127544e-06
0.35925,-1.661273106777789e-06
0.3595,-6.229121354174024e-06
0.35975,-1.0140822462196553e-05
0.36,-1.2881190003008709e-05
0.36025,-1.3963177515663981e-05
0.3605,-1.3091656066215552e-05
0.36075,-1.0058585178764556e-05
0.361,-4.999693025903685e-06
0.36125,1.7200698665276672e-06
0.3615,9.658512695138625e-06
0.36175,1.8058241582102893e-05
0.362,2.6159237668423555e-05
0.36225,3.3099539169264644e-05
0.3625,3.816129527559176e-05
0.36275,4.0707927644484524e-05
0.363,4.042363602553535e-05
0.36325,3.721431772870388e-05
0.3635,3.132568086108648e-05
0.36375,2.3329584333505204e-05
0.364,1.4053882689642793e-05
0.36425,4.443179677782181e-06
0.3645,-4.342617875679365e-06
0.36475,-1.1241148614112342e-05
0.365,-1.530207199154912e-05
0.36525,-1.574914885015931e-05
0.3655,-1.2149027990342954e-05
0.36575,-4.471892376976413e-06
0.366,7.123919683837816e-06
0.36625,2.1924692430851544e-05
0.3665,3.9164311160298184e-05
0.36675,5.7523386536335096e-05
0.367,7.579879302099907e-05
0.36725,9.302186600887507e-05
0.3675,0.00010734727269342534
0.36775,0.00011843439603822635
0.368,0.00012563293738718817
0.36825,0.00012894582115277728
0.3685,0.00012811659043706914
0.36875,0.00012408194602478946
0.369,0.00011804369129883219
0.36925,0.00011041592753685206
0.3695,0.00010299253038964128
0.36975,9.637223869341137e-05
0.37,9.163110908348585e-05
0.37025,8.927004324597388e-05
0.3705,8.983770432534807e-05
0.37075,9.27924048696284e-05
0.371,9.756205109546076e-05
0.37125,0.00010339202234760584
0.3715,0.0001098398655874172
0.37175,0.00011558062489455327
0.372,0.00011981281742936999
0.37225,0.00012142339890471742
0.3725,0.00011996854446010597
0.37275,0.00011475777201044658
0.373,0.00010569258208441276
0.37325,9.352902529688358e-05
0.3735,7.918149821168817e-05
0.37375,6.309891327128763e-05
0.374,4.682802783797708e-05
0.37425,3.173416930733488e-05
0.3745,1.861416933155915e-05
0.37475,8.762576083792342e-06
0.375,2.482190896603604e-06
0.37525,5.905389346779488e-08
0.3755,1.1917396479921099e-06
0.37575,5.3967606956898575e-06
0.376,1.1571015844294633e-05
0.37625,1.8553195382574083e-05
0.3765,2.4715188596738988e-05
0.37675,2.8727522526741407e-05
0.377,2.9103550371116193e-05
0.37725,2.4744845403772478e-05
0.3775,1.4851855617472413e-05
0.37775,-1.0225429466113535e-07
0.378,-1.9064583098328606e-05
0.37825,-3.9464334798260316e-05
0.3785,-5.841997100813723e-05
0.37875,-7.148815013802093e-05
0.379,-7.463223052119096e-05
0.37925,-6.36634480128452e-05
0.3795,-3.48350348904227e-05
0.37975,1.3942182205518654e-05
0.38,8.128668186434357e-05
0.38025,0.000164230707326685
0.3805,0.0002570736109103689
0.38075,0.00035118228219672797
0.381,0.0004307272604524455
0.38125,0.0004832133186692376
0.3815,0.0005041750418952092
0.38175,0.00048650716193118397
0.382,0.00043232369068856415
0.38225,0.00035158144146347093
0.3825,0.0002555097633441313
0.38275,0.00015457438772610796
0.383,5.9257092752923206e-05
0.38325,-2.3548078875673326e-05
0.3835,-8.864188500609274e-05
0.38375,-0.0001341187375280881
0.384,-0.00015858165883647873
0.38425,-0.00016394748280806998
0.3845,-0.00015458877322353847
0.38475,-0.00013427829342201156
0.385,-0.0001067215497133226
0.38525,-7.533577873040356e-05
0.3855,-4.368625529661191e-05
0.38575,-1.4381598291362287e-05
0.386,1.0579243768683883e-05
0.38625,2.9567640391520374e-05
0.3865,4.262003682604553e-05
0.38675,4.976889409755305e-05
0.387,5.097626156621917e-05
0.38725,4.6615578694191044e-05
0.3875,3.757184478533502e-05
0.38775,2.5058370050883456e-05
0.388,1.0671203521025375e-05
0.38825,-3.955322134500021e-06
0.3885,-1.709536879952211e-05
0.38875,-2.7361736072802303e-05
0.389,-3.3534909325569854e-05
0.38925,-3.491401660270833e-05
0.3895,-3.121028325999123e-05
0.38975,-2.2728236468663427e-05
0.39,-1.0099152596155275e-05
0.39025,5.576140202063229e-06
0.3905,2.3002035035602536e-05
0.39075,4.075501080040485e-05
0.391,5.752623399754153e-05
0.39125,7.203972137360379e-05
0.3915,8.359067492755108e-05
0.39175,9.191540573398596e-05
0.392,9.657559138787976e-05
0.39225,9.831137452602998e-05
0.3925,9.793265680932946e-05
0.39275,9.547298478903253e-05
0.393,9.292699009802436e-05
0.39325,9.072239380332466e-05
0.3935,9.040014367275829e-05
0.39375,9.194956812781623e-05
0.394,9.625455898657566e-05
0.39425,0.00010322775588792431
0.3945,0.00011242180440238681
0.39475,0.00012354570736704796
0.395,0.00013534030452714478
0.39525,0.00014761271323207863
0.3955,0.0001589950975938809
0.39575,0.0001685493965407999
0.396,0.0001762315863752238
0.39625,0.00018112707030090158
0.3965,0.0001833425347581433
0.39675,0.00018280498520053143
0.397,0.0001807186014409458
0.39725,0.00017696022735173535
0.3975,0.0001727885023061142
0.39775,0.00016860063591555183
0.398,0.00016524186574392376
0.39825,0.0001630516901134066
0.3985,0.0001621761395490888
0.39875,0.0001627062671573542
0.399,0.00016384595195861271
0.39925,0.00016611085495365555
0.3995,0.00016770420677467498
0.39975,0.000168236634993961
0.4,0.00016650602240988316
0.40025,0.0001630782246429818
0.4005,0.0001562245321624603
0.40075,0.00014693419377322496
0.401,0.0001345510909523763
0.40125,0.00011992040636039645
0.4015,0.0001037744097142066
0.40175,8.683354150802336e-05
0.402,7.059122874366031e-05
0.40225,5.523368054935777e-05
0.4025,4.23859912263491e-05
0.40275,3.219516615013777e-05
0.403,2.529440994196866e-05
0.40325,2.1830325190628866e-05
0.4035,2.1575371446655568e-05
0.40375,2.3803756529423822e-05
0.404,2.778407459663499e-05
0.40425,3.2662884025385135e-05
0.4045,3.7512395408154836e-05
0.40475,4.133828795273625e-05
0.405,4.343816934826565e-05
0.40525,4.3275489317077845e-05
0.4055,4.055164112533273e-05
0.40575,3.5349103587308487e-05
0.406,2.7956775105210008e-05
0.40625,1.8945062121929294e-05
0.4065,9.016593646248429e-06
0.40675,-1.0514396835933064e-06
0.407,-1.0497954979771337e-05
0.40725,-1.8609009637695865e-05
0.4075,-2.4894814760359565e-05
0.40775,-2.904537147701852e-05
0.408,-3.101419659893287e-05
0.40825,-3.0916654204767846e-05
0.4085,-2.9132088863848007e-05
0.40875,-2.6136636146832384e-05
0.409,-2.249720532658146e-05
0.40925,-1.87488100737808e-05
0.4095,-1.5327822409837433e-05
0.40975,-1.266817452439734e-05
0.41,-1.0853869809499184e-05
0.41025,-9.942760664785523e-06
0.4105,-9.802493235563228e-06
0.41075,-1.0186722121966907e-05
0.411,-1.0695004809647464e-05
0.41125,-1.1071617747639788e-05
0.4115,-1.097824981284354e-05
0.41175,-1.028650257366831e-05
0.412,-8.937535799406185e-06
0.41225,-7.078416060092323e-06
0.4125,-5.01178000368851e-06
0.41275,-3.0909047257645552e-06
0.413,-1.7754439474370328e-06
0.41325,-1.5338976858186978e-06
0.4135,-2.7211991165601675e-06
0.41375,-5.526789574297086e-06
0.414,-1.0009462181060368e-05
0.41425,-1.597247305406189e-05
0.4145,-2.2941765547253332e-05
0.41475,-3.038104570467908e-05
0.415,-3.748193199827467e-05
0.41525,-4.3499868864330274e-05
0.4155,-4.7584385073224864e-05
0.41575,-4.915607144459971e-05
0.416,-4.777933507539026e-05
0.41625,-4.335253284249371e-05
0.4165,-3.6005852839142255e-05
0.41675,-2.6255803445586556e-05
0.417,-1.4912694391088548e-05
0.41725,-3.011802515871047e-06
0.4175,8.341589939138563e-06
0.41775,1.7946670800530158e-05
0.418,2.4908838214376997e-05
0.41825,2.8312829608945014e-05
0.4185,2.779246503187647e-05
0.41875,2.3204340913973812e-05
0.419,1.496977611912477e-05
0.41925,3.863335239421916e-06
0.4195,-9.009148774393078e-06
0.41975,-2.2293850644400687e-05
0.42,-3.4611440022870304e-05
0.42025,-4.458375081642206e-05
0.4205,-5.099827065431779e-05
0.42075,-5.30018360412899e-05
0.421,-5.015893079571018e-05
0.42125,-4.248433639293637e-05
0.4215,-3.0369405713176122e-05
0.42175,-1.4753234970688911e-05
0.422,3.269308785932378e-06
0.42225,2.2214944672030428e-05
0.4225,4.075331311694266e-05
0.42275,5.756097298032801e-05
0.423,7.160462966939444e-05
0.42325,8.232569562318043e-05
0.4235,8.893070262573258e-05
0.42375,9.127275574978165e-05
0.424,9.027345847755245e-05
0.42425,8.645745000330612e-05
0.4245,8.112431743919433e-05
0.42475,7.52358765970712e-05
0.425,7.034995089286686e-05
0.42525,6.730369451786099e-05
0.4255,6.627730679153715e-05
0.42575,6.841049340590322e-05
0.426,7.28973684649389e-05
0.42625,7.960193208468356e-05
0.4265,8.781652886407642e-05
0.42675,9.596423833154667e-05
0.427,0.00010301064385137097
0.42725,0.00010746721071716954
0.4275,0.00010839318064009326
0.42775,0.00010501480955600401
0.428,9.76329905984429e-05
0.42825,8.610871312824874e-05
0.4285,7.149043555374519e-05
0.42875,5.4288039523864974e-05
0.429,3.6163257056061454e-05
0.42925,1.8888055102341607e-05
0.4295,3.487666439113103e-06
0.42975,-8.7336420237912e-06
0.43,-1.667139262783738e-05
0.43025,-2.0003679853216243e-05
0.4305,-1.8648590374029992e-05
0.43075,-1.321076027169929e-05
0.431,-4.623561870102345e-06
0.43125,5.633834870898494e-06
0.4315,1.6223402821598127e-05
0.43175,2.524476423037461e-05
0.432,3.1135851329978246e-05
0.43225,3.237628558679197e-05
0.4325,2.8158548014638748e-05
0.43275,1.7985636490356553e-05
0.433,2.1149883218066896e-06
0.43325,-1.87814895610475e-05
0.4335,-4.346009918267557e-05
0.43375,-7.056254078812326e-05
0.434,-9.834198955414914e-05
0.43425,-0.00012357955026514223
0.4345,-0.0001414240984400274
0.43475,-0.00014848825324455071
0.435,-0.00014159577986900854
0.43525,-0.00011822837653926505
0.4355,-7.705714410496984e-05
0.43575,-1.79538455963817e-05
0.436,5.998958507310097e-05
0.43625,0.00015190671464245333
0.4365,0.00025000803612774134
0.43675,0.00034435552089106907
0.437,0.00042611477843674313
0.43725,0.0004837377921531063
0.4375,0.0005091821611534538
0.43775,0.000491224136940205
0.438,0.0004323426707522858
0.43825,0.0003464291046943683
0.4385,0.0002435136531146172
0.43875,0.00013488307935109352
0.439,3.0271424779984498e-05
0.43925,-5.845746998489403e-05
0.4395,-0.00012481962802129857
0.43975,-0.00016698053789179778
0.44,-0.00018596914842715188
0.44025,-0.00018379474047177386
0.4405,-0.0001641408741724218
0.44075,-0.00013161482610268217
0.441,-9.369804326438426e-05
0.44125,-5.5458697784109285e-05
0.4415,-2.1226135472435146e-05
0.44175,5.638406041862418e-06
0.442,2.367450754021706e-05
0.44225,3.218308139509832e-05
0.4425,3.1469579190219006e-05
0.44275,2.3563270873744622e-05
0.443,1.062963441983303e-05
0.44325,-5.231627697367764e-06
0.4435,-2.21234399431143e-05
0.44375,-3.7744284321775735e-05
0.444,-5.035945005480397e-05
0.44425,-5.839305456380041e-05
0.4445,-6.108747655603657e-05
0.44475,-5.799847731300987e-05
0.445,-4.965711780055709e-05
0.44525,-3.680286338879939e-05
0.4455,-2.08516595420786e-05
0.44575,-3.2821886799869456e-06
0.446,1.4125130877681327e-05
0.44625,2.9846672284706642e-05
0.4465,4.24837508710571e-05
0.44675,5.12145515591273e-05
0.447,5.554360345615959e-05
0.44725,5.5683568821397525e-05
0.4475,5.2252020229725535e-05
0.44775,4.647356235077621e-05
0.448,3.948702712327426e-05
0.44825,3.309313925956302e-05
0.4485,2.878148443507239e-05
0.44875,2.7935280489019532e-05
0.449,3.116207646593605e-05
0.44925,3.8706350063594227e-05
0.4495,5.099378586779508e-05
0.44975,6.688540086856975e-05
0.45,8.561017845603406e-05
0.45025,0.00010588802988103305
0.4505,0.00012531572519628654
0.45075,0.00014340545283886142
0.451,0.0001577273676451283
0.45125,0.0001680030961012003
0.4515,0.00017344073709062895
0.45175,0.0001737101547162085
0.452,0.00016876651865699392
0.45225,0.0001606528653600159
0.4525,0.00014959525110091237
0.45275,0.00013751812891261525
0.453,0.00012567039172568315
0.45325,0.0001156759618396932
0.4535,0.00010909400687805024
0.45375,0.00010579077250716775
0.454,0.00010694761392219594
0.45425,0.0001118954659669553
0.4545,0.0001197923595501043
0.45475,0.000129987421979629
0.455,0.00014055611222944458
0.45525,0.00015102694131281563
0.4555,0.00015878428017977514
0.45575,0.00016302129534126925
0.456,0.00016299586717089182
0.45625,0.0001575635413737504
0.4565,0.00014720641834039597
0.45675,0.00013198924765564537
0.457,0.00011253565077739956
0.45725,9.07154219315714e-05
0.4575,6.803501181119168e-05
0.45775,4.5308717287767696e-05
0.458,2.459870257727902e-05
0.45825,7.512224395387885e-06
0.4585,-5.6817208753104865e-06
0.45875,-1.425054646096159e-05
0.459,-1.7955253570122927e-05
0.45925,-1.7279145449725447e-05
0.4595,-1.2997883989972442e-05
0.45975,-6.186968901170536e-06
0.46,1.942520521925812e-06
0.46025,1.0029602553674962e-05
0.4605,1.6902556471478558e-05
0.46075,2.1467963772395322e-05
0.461,2.310423605199742e-05
0.46125,2.1420026972448677e-05
0.4615,1.6402668025576896e-05
0.46175,8.532459397543018e-06
0.462,-1.5662906389530735e-06
0.46225,-1.297463631975317e-05
0.4625,-2.4720457659109452e-05
0.46275,-3.5872224979929636e-05
0.463,-4.5464530471097906e-05
0.46325,-5.293451785926764e-05
0.4635,-5.7804277066450773e-05
0.46375,-5.995743088665205e-05
0.464,-5.952546927052371e-05
0.46425,-5.6891400193491296e-05
0.4645,-5.266541427451309e-05
0.46475,-4.7420429835535285e-05
0.465,-4.1906234464326814e-05
0.46525,-3.676469724883801e-05
0.4655,-3.248950193778963e-05
0.46575,-2.9461429771435065e-05
0.466,-2.7810459616461e-05
0.46625,-2.7515292741228346e-05
0.4665,-2.8405465993739516e-05
0.46675,-3.0152557949380357e-05
0.467,-3.23782854920803e-05
0.46725,-3.468949771600804e-05
0.4675,-3.6724840037417986e-05
0.46775,-3.8271829735130714e-05
0.468,-3.9116270061445716e-05
0.46825,-3.928029897131778e-05
0.4685,-3.88688650360871e-05
0.46875,-3.805005973709115e-05
0.469,-3.70776620143646e-05
0.46925,-3.629108105814152e-05
0.4695,-3.586202775328958e-05
0.46975,-3.593090513946512e-05
0.47,-3.6646163954127484e-05
0.47025,-3.7977665908232275e-05
0.4705,-3.9721368615961446e-05
0.47075,-4.168828247417455e-05
0.471,-4.3607099226678704e-05
0.47125,-4.517765901649377e-05
0.4715,-4.6135230541100124e-05
0.47175,-4.623906384021797e-05
0.472,-4.5395291386384234e-05
0.47225,-4.363933542318312e-05
0.4725,-4.105003121471487e-05
0.47275,-3.785400132419087e-05
0.473,-3.438774841176232e-05
0.47325,-3.103284691733845e-05
0.4735,-2.808916358498417e-05
0.47375,-2.5871855930486017e-05
0.474,-2.4552065674749376e-05
0.47425,-2.427845320947345e-05
0.4745,-2.4968531057483953e-05
0.47475,-2.6489149877238255e-05
0.475,-2.8545748746418997e-05
0.47525,-3.0773363067027016e-05
0.4755,-3.2761837363790185e-05
0.47575,-3.414516333000157e-05
0.476,-3.458666266641591e-05
0.47625,-3.3753252613593306e-05
0.4765,-3.162116201887611e-05
0.47675,-2.807871971292582e-05
0.477,-2.330434776818003e-05
0.47725,-1.746529454323356e-05
0.4775,-1.0898265125188164e-05
0.47775,-3.880917901192643e-06
0.478,3.1952199464939613e-06
0.47825,1.0051352042489816e-05
0.4785,1.6520443555221663e-05
0.47875,2.2481510151868673e-05
0.479,2.8010286820939525e-05
0.47925,3.324105504614148e-05
0.4795,3.834980163253223e-05
0.47975,4.3592467543811716e-05
0.48,4.88904421796747e-05
0.48025,5.511825875753646e-05
0.4805,6.14907792109928e-05
0.48075,6.79520154459618e-05
0.481,7.482753960074846e-05
0.48125,8.096366700579859e-05
0.4815,8.615468711058276e-05
0.48175,9.011155256355083e-05
0.482,9.220413203580238e-05
0.48225,9.210252484275089e-05
0.4825,8.895943783137459e-05
0.48275,8.309000547919366e-05
0.483,7.484587750351792e-05
0.48325,6.382441604735502e-05
0.4835,5.1041459332622734e-05
0.48375,3.731367491722414e-05
0.484,2.3249833996711e-05
0.48425,9.96909657304766e-06
0.4845,-1.7549146429253999e-06
0.48475,-1.1165576649730759e-05
0.485,-1.787032622158807e-05
0.48525,-2.149115788261503e-05
0.4855,-2.2199354023004873e-05
0.48575,-2.0272073393474964e-05
0.486,-1.641117318859697e-05
0.48625,-1.1382784155017226e-05
0.4865,-6.237128241260675e-06
0.48675,-1.8148858888503205e-06
0.487,8.313461271417548e-07
0.48725,1.1869226064246814e-06
0.4875,-1.4072509265772857e-06
0.48775,-7.3123308459097255e-06
0.488,-1.716962068750523e-05
0.48825,-3.006460175406066e-05
0.4885,-4.631705891475594e-05
0.48875,-6.43587107544098e-05
0.489,-8.343979967288277e-05
0.48925,-0.0001028233884519357
0.4895,-0.00012127825253862432
0.48975,-0.0001360531356810518
0.49,-0.00014321914314648418
0.49025,-0.00013925635263981935
0.4905,-0.00012215500673390612
0.49075,-9.095924570252704e-05
0.491,-4.4329189520559946e-05
0.49125,1.717224848595913e-05
0.4915,9.192691954585858e-05
0.49175,0.00018103458769238984
0.492,0.0002746323314030873
0.49225,0.00035654629259171974
0.4925,0.0004163713470898922
0.49275,0.00044455119385622866
0.493,0.0004395347093998619
0.49325,0.0004006028995064949
0.4935,0.0003304023393310355
0.49375,0.0002388219883839954
0.494,0.00014013091932935028
0.49425,4.5667807735636455e-05
0.4945,-3.62656852521198e-05
0.49475,-0.00010004837597717035
0.495,-0.00014215506427399803
0.49525,-0.00016253786774341017
0.4955,-0.0001630219447395157
0.49575,-0.0001481617824117538
0.496,-0.0001242490051648346
0.49625,-9.641918702479489e-05
0.4965,-6.815836405874929e-05
0.49675,-4.350563815791309e-05
0.497,-2.491524724743904e-05
0.49725,-1.3050316858243435e-05
0.4975,-8.457899447131806e-06
0.49775,-9.872771361801272e-06
0.498,-1.488144693337968e-05
0.49825,-2.1969868798816217e-05
0.4985,-2.9951848946581678e-05
0.49875,-3.7513541701229864e-05
0.499,-4.342913046874769e-05
0.49925,-4.6844116156945046e-05
0.4995,-4.7189010476971977e-05
0.49975,-4.420908018316912e-05
0.5,-3.8207744644210234e-05
0.50025,-2.967066245023563e-05
0.5005,-1.9322995146568468e-05
0.50075,-8.085977334343624e-06
0.501,3.086297410318331e-06
0.50125,1.3303827185038949e-05
0.5015,2.1801430549026387e-05
0.50175,2.8039724193241342e-05
0.502,3.188275396314278e-05
0.50225,3.333054029561537e-05
0.5025,3.288850567916815e-05
0.50275,3.1134864346287025e-05
0.503,2.9000113426010267e-05
0.50325,2.727355368030881e-05
0.5035,2.7137106217945495e-05
0.50375,2.8838407207133245e-05
0.504,3.3703928024799286e-05
0.50425,4.1246591367796215e-05
0.5045,5.157448717521627e-05
0.50475,6.50304360308621e-05
0.505,7.992513536114945e-05
0.50525,9.556226845920757e-05
0.5055,0.00011108663116135532
0.50575,0.00012604915949354507
0.506,0.00013844889608815808
0.50625,0.0001484847275193852
0.5065,0.00015500391541990838
0.50675,0.0001581549752987915
0.507,0.00015779062741995295
0.50725,0.0001547026960579545
0.5075,0.00014929927156626503
0.50775,0.0001427644060064048
0.508,0.00013550650909768277
0.50825,0.0001284433459728477
0.5085,0.0001230578122368616
0.50875,0.00011927182385069276
0.509,0.00011712055757306739
0.50925,0.00011751780343047274
0.5095,0.00011964653044367924
0.50975,0.00012297954952187066
0.51,0.00012743003883732414
0.51025,0.0001316915300287683
0.5105,0.00013511128330238783
0.51075,0.00013696974785902001
0.511,0.00013637707509633353
0.51125,0.0001332558619678833
0.5115,0.00012700715417995664
0.51175,0.00011750550736149857
0.512,0.00010532901931774397
0.51225,9.11613506344904e-05
0.5125,7.544333633624305e-05
0.51275,5.959461309522981e-05
0.513,4.352440750858122e-05
0.51325,2.9058436499377915e-05
0.5135,1.6177708028828124e-05
0.51375,5.516317798351456e-06
0.514,-2.28822245647827e-06
0.51425,-7.496897935837111e-06
0.5145,-1.002050230136917e-05
0.51475,-1.0376714370694323e-05
0.515,-8.866827848151891e-06
0.51525,-6.250825370724867e-06
0.5155,-3.0275138122843184e-06
0.51575,-9.235538720054198e-11
0.516,2.4462321628032676e-06
0.51625,3.7947717068472736e-06
0.5165,3.7932561257389792e-06
0.51675,2.2734225421412215e-06
0.517,-6.293934660236932e-07
0.51725,-4.876835430326738e-06
0.5175,-1.0028645759416092e-05
0.51775,-1.5906399999835944e-05
0.518,-2.197769638220421e-05
0.51825,-2.791525008487147e-05
0.5185,-3.3329193120481255e-05
0.51875,-3.801463992715546e-05
0.519,-4.164220082907552e-05
0.51925,-4.4145513154872936e-05
0.5195,-4.541125042832539e-05
0.51975,-4.5537937531474066e-05
0.52,-4.4565971951417914e-05
0.52025,-4.267711574084769e-05
0.5205,-4.0028859245143966e-05
0.52075,-3.6891596449093704e-05
0.521,-3.33755552774687e-05
0.52125,-2.981469079984371e-05
0.5215,-2.6348535957149147e-05
0.52175,-2.3191820204484665e-05
0.522,-2.050448092216281e-05
0.52225,-1.844460061763027e-05
0.5225,-1.703346403246878e-05
0.52275,-1.64721581536307e-05
0.523,-1.6615260433634676e-05
0.52325,-1.7550429284274083e-05
0.5235,-1.911836913818387e-05
0.52375,-2.1207083006217438e-05
0.524,-2.3647698627778887e-05
0.52425,-2.6187192072920633e-05
0.5245,-2.8659067444828827e-05
0.52475,-3.0788530754575236e-05
0.525,-3.240011529782771e-05
0.52525,-3.330051548969625e-05
0.5255,-3.3391033391977517e-05
0.52575,-3.263351005127758e-05
0.526,-3.1014701498497276e-05
0.52625,-2.8776242834284416e-05
0.5265,-2.597252077277808e-05
0.52675,-2.2927331400384256e-05
0.527,-1.986634060832673e-05
0.52725,-1.716269109815981e-05
0.5275,-1.4909685980866258e-05
0.52775,-1.3419897311436583e-05
0.528,-1.277546321723945e-05
0.52825,-1.2986912141118017e-05
0.5285,-1.4002033247557542e-05
0.52875,-1.5557315997202113e-05
0.529,-1.7347903939684896e-05
0.52925,-1.903623448468506e-05
0.5295,-2.0245606114072246e-05
0.52975,-2.0698283398483077e-05
0.53,-2.0040993086063454e-05
0.53025,-1.8129252904055827e-05
0.5305,-1.4901527509063081e-05
0.53075,-1.0475064010708926e-05
0.531,-4.994367119234326e-06
0.53125,1.1872600122994717e-06
0.5315,7.754966885631093e-06
0.53175,1.4297695163424885e-05
0.532,2.0415057026972737e-05
0.53225,2.588628777947524e-05
0.5325,3.047900123943174e-05
0.53275,3.420234390334188e-05
0.533,3.7226737432843846e-05
0.53325,3.9516959207564674e-05
0.5335,4.172476896967323e-05
0.53375,4.394137864190631e-05
0.534,4.674540592620642e-05
0.53425,5.0356195826142774e-05
0.5345,5.516262857351905e-05
0.53475,6.161104389393618e-05
0.535,6.911284316901261e-05
0.53525,7.773925697831505e-05
0.5355,8.748477661654118e-05
0.53575,9.69540044871097e-05
0.536,0.00010576909164807452
0.53625,0.00011327375013051746
0.5365,0.00011827160019868964
0.53675,0.00012027196774992123
0.537,0.00011884449181462367
0.53725,0.00011374084390183264
0.5375,0.00010551796911666074
0.53775,9.341139386984762e-05
0.538,7.88907888256163e-05
0.53825,6.255344168570748e-05
0.5385,4.49950158676006e-05
0.53875,2.802645274860874e-05
0.539,1.261110119540649e-05
0.53925,-4.073562863365227e-07
0.5395,-1.017680769594973e-05
0.53975,-1.621824729783361e-05
0.54,-1.8296698808137498e-05
0.54025,-1.6589165202572007e-05
0.5405,-1.1497361978536043e-05
0.54075,-3.918941661627976e-06
0.541,5.099055281337323e-06
0.54125,1.4282005048232174e-05
0.5415,2.2412104521531277e-05
0.54175,2.8227941736650304e-05
0.542,3.07503921309085e-05
0.54225,2.908324838149105e-05
0.5425,2.2849852748538125e-05
0.54275,1.1684337000086084e-05
0.543,-4.234237894631071e-06
0.54325,-2.424686353541616e-05
0.5435,-4.65678651903782e-05
0.54375,-6.90440052661698e-05
0.544,-8.855196134473332e-05
0.54425,-0.00010121241798010466
0.5445,-0.00010302912477260462
0.54475,-9.103109086855184e-05
0.545,-6.145793829113396e-05
0.54525,-1.2407191555915874e-05
0.5455,5.551778439572875e-05
0.54575,0.00013827095498208968
0.546,0.0002293080228448888
0.54625,0.0003199386642551296
0.5465,0.0003986771273812393
0.54675,0.00045077640714666464
0.547,0.0004703381086585339
0.54725,0.00045246051442910545
0.5475,0.00039645990575892017
0.54775,0.00031442207081163354
0.548,0.00021944621282784333
0.54825,0.00012351820954949145
0.5485,3.572913939340327e-05
0.54875,-3.7785764939584654e-05
0.549,-9.234536212747456e-05
0.54925,-0.0001272036647646286
0.5495,-0.00014202181824990337
0.54975,-0.0001406193703254737
0.55,-0.00012670409210296506
0.55025,-0.0001046711999486215
0.5505,-7.958191999686658e-05
0.55075,-5.4513685482917144e-05
0.551,-3.2940176981150905e-05
0.55125,-1.5805064355588948e-05
0.5515,-4.097093329271573e-06
0.55175,2.670125335498621e-06
0.552,5.302727950344854e-06
0.55225,4.400086479082808e-06
0.5525,9.331493718775935e-07
0.55275,-4.15683654088899e-06
0.553,-9.735048438046049e-06
0.55325,-1.4815106826885218e-05
0.5535,-1.8481587515069365e-05
0.55375,-2.0035355327426032e-05
0.554,-1.9057580815658675e-05
0.55425,-1.550763606404854e-05
0.5545,-9.445070314771497e-06
0.55475,-1.1675376918671609e-06
0.555,8.779187942819234e-06
0.55525,1.9667254420057003e-05
0.5555,3.067527061012189e-05
0.55575,4.105039489754594e-05
0.556,5.009602571843683e-05
0.55625,5.731808898725704e-05
0.5565,6.232474970672263e-05
0.55675,6.549621889406326e-05
0.557,6.655037388338823e-05
0.55725,6.611138618857783e-05
0.5575,6.51552875919649e-05
0.55775,6.380132243450773e-05
0.558,6.384299365146116e-05
0.55825,6.481080377460454e-05
0.5585,6.837318459074225e-05
0.55875,7.406251503123149e-05
0.559,8.207488985842882e-05
0.55925,9.262646478728971e-05
0.5595,0.00010481318928596249
0.55975,0.00011852845467400967
0.56,0.0001331335523973789
0.56025,0.000147167034087049
0.5605,0.0001600466036368052
0.56075,0.00017133577121401637
0.561,0.0001803136920698147
0.56125,0.00018690561426046797
0.5615,0.00019004906748591946
0.56175,0.00019066080025289771
0.562,0.0001887472757491706
0.56225,0.00018476244311366584
0.5625,0.00017926455772310045
0.56275,0.00017297309861835473
0.563,0.00016601734085605312
0.56325,0.00015934118268521355
0.5635,0.00015291975465414728
0.56375,0.0001476915821177334
0.564,0.00014347035283848297
0.56425,0.000139991713628957
0.5645,0.00013740927614779052
0.56475,0.00013540889511451916
0.565,0.00013347628001631227
0.56525,0.00013166096388390205
0.5655,0.00012875564014779478
0.56575,0.00012545776007219134
0.566,0.0001210814650975652
0.56625,0.00011516405672170548
0.5665,0.00010866735239718265
0.56675,0.00010128052818943111
0.567,9.31620704091411e-05
0.56725,8.484929031565755e-05
0.5675,7.636220051193915e-05
0.56775,6.76401866950997e-05
0.568,5.984860957804274e-05
0.56825,5.189740331381753e-05
0.5685,4.4845481075350524e-05
0.56875,3.8596318369036234e-05
0.569,3.25271943421592e-05
0.56925,2.718453933639462e-05
0.5695,2.2348300413151685e-05
0.56975,1.803491774819465e-05
0.57,1.4214558527503901e-05
0.57025,1.0902950969751588e-05
0.5705,8.085229303203314e-06
0.57075,5.860500491538589e-06
0.571,4.254768365245154e-06
0.57125,3.3085292712959327e-06
0.5715,3.077948420840196e-06
0.57175,3.4952158555447655e-06
0.572,4.463738842564553e-06
0.57225,5.8191083422018665e-06
0.5725,7.376246400875735e-06
0.57275,8.871535543313259e-06
0.573,1.0065146706648167e-05
0.57325,1.0707371055034244e-05
0.5735,1.0628692729462396e-05
0.57375,9.704239850533766e-06
0.574,7.936270940916846e-06
0.57425,5.406740121812111e-06
0.5745,2.3282460881541163e-06
0.57475,-1.022148103024045e-06
0.575,-4.280089987891552e-06
0.57525,-7.086132205296626e-06
0.5755,-9.07962563740258e-06
0.57575,-9.976783830106785e-06
0.576,-9.58311226665564e-06
0.57625,-7.860080576249375e-06
0.5765,-4.882803115461262e-06
0.57675,-8.985943007033832e-07
0.577,3.7292124413895394e-06
0.57725,8.564121057426692e-06
0.5775,1.3105919586873064e-05
0.57775,1.6850551091674515e-05
0.578,1.940492036945389e-05
0.57825,2.0456123812019748e-05
0.5785,1.9889590810371572e-05
0.57875,1.7732874892228846e-05
0.579,1.4239097223812614e-05
0.57925,9.74653890943751e-06
0.5795,4.8260944777869085e-06
0.57975,6.358104089481412e-08
0.58,-3.975302831072324e-06
0.58025,-6.698642222967772e-06
0.5805,-7.750546935586568e-06
0.58075,-6.908315327020634e-06
0.581,-4.08409153795608e-06
0.58125,4.0968294951915597e-07
0.5815,6.208688737027175e-06
0.58175,1.2756040034609928e-05
0.582,1.935325216549358e-05
0.58225,2.529233706505e-05
0.5825,2.9949622514881448e-05
0.58275,3.2716245117875666e-05
0.583,3.3362835273464866e-05
0.58325,3.169098345732093e-05
0.5835,2.7987294520791688e-05
0.58375,2.269464557408697e-05
0.584,1.6450962289200733e-05
0.58425,1.0077060750094485e-05
0.5845,4.475809534824472e-06
0.58475,4.628008363452884e-07
0.585,-1.2049598362970425e-06
0.58525,-3.555847681050335e-08
0.5855,4.272421870210091e-06
0.58575,1.1611609241888155e-05
0.586,2.1730097764850015e-05
0.58625,3.4034614998564817e-05
0.5865,4.780389346980648e-05
0.58675,6.18032407552097e-05
0.587,7.549455504083144e-05
0.58725,8.76622441926539e-05
0.5875,9.759661609727565e-05
0.58775,0.00010493773412116183
0.588,0.00010923027247280252
0.58825,0.00011070688112575914
0.5885,0.00010961512775393428
0.58875,0.00010670358698624226
0.589,0.00010307921986891784
0.58925,9.936268719084053e-05
0.5895,9.663632587159444e-05
0.58975,9.530213423832562e-05
0.59,9.638168806798438e-05
0.59025,9.937912936125172e-05
0.5905,0.00010446756589396468
0.59075,0.00011129679357216906
0.591,0.00011822057565895601
0.59125,0.00012527835443909552
0.5915,0.0001311256391255269
0.59175,0.0001343490313798713
0.592,0.0001352332086762834
0.59225,0.00013214673740510294
0.5925,0.00012538563986685394
0.59275,0.00011448357268995252
0.593,0.00010049877558101991
0.59325,8.38010090548097e-05
0.5935,6.569615725617731e-05
0.59375,4.744999009798098e-05
0.594,3.030650067375136e-05
0.59425,1.5476136082091083e-05
0.5945,4.368170639617748e-06
0.59475,-2.6465428128827475e-06
0.595,-5.00891132839603e-06
0.59525,-2.298871915137858e-06
0.5955,4.969020128287107e-06
0.59575,1.5068882162675757e-05
0.596,2.6091717329353504e-05
0.59625,3.623396910929201e-05
0.5965,4.374810525251601e-05
0.59675,4.7278260003004326e-05
0.597,4.582087313719238e-05
0.59725,3.8921688524449364e-05
0.5975,2.668612201353934e-05
0.59775,9.878322110773041e-06
0.598,-1.0276424074888847e-05
0.59825,-3.172812724621197e-05
0.5985,-5.269170974514699e-05
0.59875,-6.850094090173147e-05
0.599,-7.228188125576706e-05
0.59925,-5.9625551597486924e-05
0.5995,-2.77696970212535e-05
0.59975,2.3935334137055112e-05
0.6,9.364007273369705e-05
0.60025,0.00017778758352707697
0.6005,0.00027035696042832836
0.60075,0.00036169351305861605
0.601,0.00043808263819950064
0.60125,0.00048312713214805777
0.6015,0.0004947409530971025
0.60175,0.0004683040641922694
0.602,0.00040722482351728483
0.60225,0.00032506158944081893
0.6025,0.00023187800555677756
0.60275,0.0001377026698112799
0.603,5.1458859227044834e-05
0.60325,-2.0816384422987863e-05
0.6035,-7.543344448059928e-05
0.60375,-0.00011121187461376116
0.604,-0.00012893054804120408
0.60425,-0.00012993352606829162
0.6045,-0.0001192869643527301
0.60475,-0.00010016018468064835
0.605,-7.64288439768397e-05
0.60525,-5.094777275711846e-05
0.6055,-2.6494008509938333e-05
0.60575,-4.885770302881691e-06
0.606,1.2723985077361734e-05
0.60625,2.6373424477077348e-05
0.6065,3.6024550104568315e-05
0.60675,4.15012243863269e-05
0.607,4.283763028054007e-05
0.60725,4.047916552211359e-05
0.6075,3.5210334275724305e-05
0.60775,2.7985263706506437e-05
0.608,1.999872946096957e-05
0.60825,1.2423182216346915e-05
0.6085,6.3855151621027e-06
0.60875,2.8449493282553104e-06
0.609,2.3916828261865155e-06
0.60925,5.364715812378973e-06
0.6095,1.1687438420473772e-05
0.60975,2.095632061859609e-05
0.61,3.21917244006496e-05
0.61025,4.499334411141919e-05
0.6105,5.776041584301977e-05
0.61075,6.98046471574349e-05
0.611,8.038960549253779e-05
0.61125,8.838356378953984e-05
0.6115,9.429969144133314e-05
0.61175,9.731353367930953e-05
0.612,9.814338224314742e-05
0.61225,9.696529150339445e-05
0.6125,9.542034539690707e-05
0.61275,9.329009947857972e-05
0.613,9.266826464713811e-05
0.61325,9.338754802738704e-05
0.6135,9.639307348390517e-05
0.61375,0.00010265465427836807
0.614,0.00011146641765232995
0.61425,0.000123065109798711
0.6145,0.00013657326872838706
0.61475,0.000151650308005452
0.615,0.0001670643128380674
0.61525,0.00018141487570074236
0.6155,0.0001945829465608467
0.61575,0.00020464958486689488
0.616,0.00021171244404464927
0.61625,0.00021559927269188583
0.6165,0.00021542527384234506
0.61675,0.00021231217599339654
0.617,0.00020600478139217362
0.61725,0.0001980224485930005
0.6175,0.0001884786898534394
0.61775,0.00017857478725339526
0.618,0.00016956841398330368
0.61825,0.00016133062315200716
0.6185,0.00015465026702881355
0.61875,0.00015014965157645268
0.619,0.00014735060408436204
0.61925,0.0001463232177283172
0.6195,0.00014617325478641957
0.61975,0.00014658811058358278
0.62,0.00014727962099975238
0.62025,0.00014674696534694274
0.6205,0.000145102601440981
0.62075,0.00014193511263967945
0.621,0.00013650500343138878
0.62125,0.00012953923349752123
0.6215,0.00012037000323990223
0.62175,0.00011003579886513455
0.622,9.899572196581544e-05
0.62225,8.734483434649957e-05
0.6225,7.556659053293215e-05
0.62275,6.492109955995019e-05
0.623,5.5025024263749426e-05
0.62325,4.6477417516008226e-05
0.6235,3.942719479813566e-05
0.62375,3.3819502595248896e-05
0.624,2.9530199166162597e-05
0.62425,2.6267043727160996e-05
0.6245,2.3765239673631683e-05
0.62475,2.1764125404084907e-05
0.625,2.0034699137338712e-05
0.62525,1.8307805888692943e-05
0.6255,1.6508375801566852e-05
0.62575,1.459330766704834e-05
0.626,1.2667231594731781e-05
0.62625,1.083887240512324e-05
0.6265,9.307811265418217e-06
0.62675,8.254939479733633e-06
0.627,7.72156580709231e-06
0.62725,7.895149432350984e-06
0.6275,8.668912851613846e-06
0.62775,9.92555768112026e-06
0.628,1.15320790682441e-05
0.62825,1.3142057699278085e-05
0.6285,1.4515626119978756e-05
0.62875,1.5307067755986657e-05
0.629,1.5290269289775935e-05
0.62925,1.4274515161803437e-05
0.6295,1.2212301577356345e-05
0.62975,9.14759917689601e-06
0.63,5.286041413635133e-06
0.63025,9.231091599462245e-07
0.6305,-3.542284895967453e-06
0.63075,-7.683986899130706e-06
0.631,-1.1067269379623741e-05
0.63125,-1.3320228444212136e-05
0.6315,-1.4147135703670887e-05
0.63175,-1.3415440736929426e-05
0.632,-1.1116651774117868e-05
0.63225,-7.419364061197206e-06
0.6325,-2.6451526902964618e-06
0.63275,2.811223404993961e-06
0.633,8.431903750455914e-06
0.63325,1.3685215332934384e-05
0.6335,1.8146967846094073e-05
0.63375,2.1327450061918032e-05
0.634,2.3053028428534488e-05
0.63425,2.3156467203023725e-05
0.6345,2.166771862296515e-05
0.63475,1.885765944968329e-05
0.635,1.5050086757593387e-05
0.63525,1.0660927250163199e-05
0.6355,6.15191921016214e-06
0.63575,2.0480268988376932e-06
0.636,-1.2176842831982716e-06
0.63625,-3.4455581548348765e-06
0.6365,-4.36271193153678e-06
0.63675,-4.01667781085481e-06
0.637,-2.5036845563083176e-06
0.63725,-6.782496613919765e-08
0.6375,2.9873667696725853e-06
0.63775,6.238353319857047e-06
0.638,9.31265308472541e-06
0.63825,1.1911623285019386e-05
0.6385,1.390302474532252e-05
0.63875,1.5101888161796377e-05
0.639,1.5662101134740038e-05
0.63925,1.512959461377026e-05
