Time,Modified_Signal
0.0,0.0004399182885852413
0.00025,0.0004108533418265948
0.0005,0.0003415505117744952
0.00075,0.000243586501992963
0.001,0.00013080824736524339
0.00125,2.2129822108107807e-05
0.0015,-6.70520666952366e-05
0.00175,-0.00012727480570421128
0.002,-0.00015527667867432963
0.00225,-0.00015420800991595144
0.0025,-0.00013222792068574306
0.00275,-0.00010146955063039515
0.003,-7.187418036553216e-05
0.00325,-4.9933486115379596e-05
0.0035,-3.681559960630548e-05
0.00375,-3.0956104625790724e-05
0.004,-2.8716145206937665e-05
0.00425,-2.6888475826482105e-05
0.0045,-2.4240581545774036e-05
0.00475,-2.094730693424284e-05
0.005,-1.8974718348626936e-05
0.00525,-2.004481181284877e-05
0.0055,-2.387759178951543e-05
0.00575,-2.8004400673537932e-05
0.006,-2.8784348148476005e-05
0.00625,-2.3071934786415815e-05
0.0065,-1.0012944344690961e-05
0.00675,8.027086504012886e-06
0.007,2.6019511011406797e-05
0.00725,3.810564863892258e-05
0.0075,3.980071068155827e-05
0.00775,3.0017984538248217e-05
0.008,1.1975237292721384e-05
0.00825,-7.776168513802372e-06
0.0085,-2.1407683905485443e-05
0.00875,-2.268753239048127e-05
0.009,-9.308999774813941e-06
0.00925,1.6209001029026362e-05
0.0095,4.725130281634263e-05
0.00975,7.542285305894343e-05
0.01,9.394386931219267e-05
0.01025,9.916806498129687e-05
0.0105,9.228621536066584e-05
0.01075,7.818800637403582e-05
0.011,6.453083336871963e-05
0.01125,5.754184920180452e-05
0.0115,6.096963330871929e-05
0.01175,7.465007491581454e-05
0.012,9.462741213460781e-05
0.01225,0.0001160333808359082
0.0125,0.0001339762920479435
0.01275,0.0001449861388010832
0.013,0.00014994915959074424
0.01325,0.0001508148546172292
0.0135,0.00015045259974340883
0.01375,0.00015177077735923828
0.014,0.0001551210940610119
0.01425,0.00015978010676814054
0.0145,0.00016312646075263427
0.01475,0.00016327219134165585
0.015,0.00016004904216269003
0.01525,0.00015407581290640527
0.0155,0.00014850438196735227
0.01575,0.00014589915681362747
0.016,0.00014833070422462112
0.01625,0.00015525685749146593
0.0165,0.0001641675503781204
0.01675,0.00017005085451830373
0.017,0.00016965194905927937
0.01725,0.00016036628979916218
0.0175,0.0001435804517945553
0.01775,0.00012182159147762847
0.018,0.00010085764465988321
0.01825,8.500740355771014e-05
0.0185,7.723112727030312e-05
0.01875,7.784959120112697e-05
0.019,8.402163044551228e-05
0.01925,9.144491950279763e-05
0.0195,9.463160170840944e-05
0.01975,9.086319445684742e-05
0.02,7.995814471530045e-05
0.02025,6.392544068444154e-05
0.0205,4.603677698618263e-05
0.02075,3.0202100591417316e-05
0.021,1.9830018973578844e-05
0.02125,1.5065200909232565e-05
0.0215,1.4745467713080607e-05
0.02175,1.6341261759699892e-05
0.022,1.7275431826640574e-05
0.02225,1.5830108867860178e-05
0.0225,1.1743892888639423e-05
0.02275,6.068176184192271e-06
0.023,5.167460055864316e-07
0.02325,-3.42343379511833e-06
0.0235,-5.151059286611578e-06
0.02375,-5.158782443326623e-06
0.024,-4.8038455206407555e-06
0.02425,-5.504881000231977e-06
0.0245,-8.09343944479085e-06
0.02475,-1.2456302556730875e-05
0.025,-1.7464599312235744e-05
0.02525,-2.151405410800053e-05
0.0255,-2.3219985130086958e-05
0.02575,-2.2006641853254624e-05
0.026,-1.8285007571543102e-05
0.02625,-1.3499409264947503e-05
0.0265,-9.331399567690747e-06
0.02675,-7.270114771788071e-06
0.027,-7.91720120923959e-06
0.02725,-1.0884070517253884e-05
0.0275,-1.499291481463279e-05
0.02775,-1.873530990494041e-05
0.028,-2.086200275255457e-05
0.02825,-2.0875021281360435e-05
0.0285,-1.9002886628447207e-05
0.02875,-1.6154295022168948e-05
0.029,-1.3455115727774622e-05
0.02925,-1.1755913387354581e-05
0.0295,-1.1305024192988e-05
0.02975,-1.1852803794641734e-05
0.03,-1.2690806057289412e-05
0.03025,-1.3049887030286396e-05
0.0305,-1.2535791452152333e-05
0.03075,-1.10820896987021e-05
0.031,-9.188218534752288e-06
0.03125,-7.5978021786057145e-06
0.0315,-6.88609089226041e-06
0.03175,-7.4510708892910315e-06
0.032,-9.208478406236874e-06
0.03225,-1.1548275509719383e-05
0.0325,-1.370625321394995e-05
0.03275,-1.4875806570143004e-05
0.033,-1.4514502346142847e-05
0.03325,-1.23776052057677e-05
0.0335,-8.808801121173012e-06
0.03375,-4.506973588018648e-06
0.034,-3.919911037411297e-07
0.03425,2.4847343153233343e-06
0.0345,3.4476542939321447e-06
0.03475,2.11884107207306e-06
0.035,-1.2664115024774567e-06
0.03525,-5.883855494566598e-06
0.0355,-1.0486272485299206e-05
0.03575,-1.3707477786902487e-05
0.036,-1.4373335087606328e-05
0.03625,-1.1874663320507549e-05
0.0365,-6.3830880055840245e-06
0.03675,1.1295648025859367e-06
0.037,9.12573104653225e-06
0.03725,1.5914140308490968e-05
0.0375,2.016958188500654e-05
0.03775,2.125643477947569e-05
0.038,1.968360534123417e-05
0.03825,1.6586323022100977e-05
0.0385,1.3826013427258118e-05
0.03875,1.3146126633519635e-05
0.039,1.582548472112762e-05
0.03925,2.2352059585952917e-05
0.0395,3.241880418811714e-05
0.03975,4.47256767406564e-05
0.04,5.779938540698097e-05
0.04025,7.037469730035903e-05
0.0405,8.08877764713842e-05
0.04075,8.940517391829742e-05
0.041,9.552466274745102e-05
0.04125,9.956257004350108e-05
0.0415,0.00010146152400043578
0.04175,0.00010174129259243062
0.042,0.00010054574920075252
0.04225,9.919665166712208e-05
0.0425,9.848649569199066e-05
0.04275,9.878249794038824e-05
0.043,0.00010141848437928806
0.04325,0.0001056445893232792
0.0435,0.00011127255664593212
0.04375,0.00011567615703728391
0.044,0.00011701004391415995
0.04425,0.00011314229247659783
0.0445,0.00010368425206498497
0.04475,8.87971889116208e-05
0.045,7.031231172187877e-05
0.04525,5.1584873198763776e-05
0.0455,3.616149448131934e-05
0.04575,2.58581009893643e-05
0.046,2.29265323620177e-05
0.04625,2.601577553788097e-05
0.0465,3.264378236153734e-05
0.04675,3.939140298294145e-05
0.047,4.3108635054405514e-05
0.04725,4.1588858547314855e-05
0.0475,3.4425192101712165e-05
0.04775,2.3097589204077217e-05
0.048,1.0096337742596626e-05
0.04825,-2.0082356189411573e-06
0.0485,-1.103287172676604e-05
0.04875,-1.5958661366499877e-05
0.049,-1.7017577185886556e-05
0.04925,-1.557180974009541e-05
0.0495,-1.3471926369489494e-05
0.04975,-1.2678778946964677e-05
0.05,-1.4691081993798255e-05
0.05025,-2.0824603840060462e-05
0.0505,-3.19351097101767e-05
0.05075,-4.386958669036442e-05
0.051,-5.2792478221284674e-05
0.05125,-5.45256594376647e-05
0.0515,-4.5896206155015255e-05
0.05175,-2.41635445118136e-05
0.052,1.2951610697032402e-05
0.05225,6.693845060895132e-05
0.0525,0.00013794327470498209
0.05275,0.00022409095337725564
0.053,0.0003175583067957929
0.05325,0.0004013052234050762
0.0535,0.0004593256738363566
0.05375,0.00048305963145583373
0.054,0.0004644719470978876
0.05425,0.00040469337222128653
0.0545,0.00031962808007748064
0.05475,0.000218197776644064
0.055,0.00011866467155598794
0.05525,3.254977547818678e-05
0.0555,-3.209391608502877e-05
0.05575,-7.245725876462007e-05
0.056,-8.933022547969243e-05
0.05625,-8.712330648566401e-05
0.0565,-7.446020753016443e-05
0.05675,-5.808077383580681e-05
0.057,-4.291945345712263e-05
0.05725,-3.090062624453433e-05
0.0575,-2.3066296605587082e-05
0.05775,-1.8382300435496676e-05
0.058,-1.5609249055439208e-05
0.05825,-1.3618493407641104e-05
0.0585,-1.074495780196747e-05
0.05875,-5.997042504551974e-06
0.059,7.128336720336421e-07
0.05925,8.88708588419459e-06
0.0595,1.7895954100359676e-05
0.05975,2.6757024180477554e-05
0.06,3.442424957905075e-05
0.06025,3.961618214686831e-05
0.0605,4.132084440273982e-05
0.06075,3.8972563040336304e-05
0.061,3.309214405200101e-05
0.06125,2.520001890613622e-05
0.0615,1.7693646780814936e-05
0.06175,1.3203863018357755e-05
0.062,1.404122588734466e-05
0.06225,2.1224344298171152e-05
0.0625,3.423077118263744e-05
0.06275,5.082868877372112e-05
0.063,6.74845807560189e-05
0.06325,8.15736959879854e-05
0.0635,9.007568018757695e-05
0.06375,9.191276336788985e-05
0.064,8.888877014655576e-05
0.06425,8.28099532104883e-05
0.0645,7.761658620870676e-05
0.06475,7.588334277809527e-05
0.065,8.022224039073227e-05
0.06525,9.063673179969759e-05
0.0655,0.00010539681344646189
0.06575,0.00012277466545291513
0.066,0.00013946098650193623
0.06625,0.00015358246241271514
0.0665,0.00016353307779858503
0.06675,0.0001693940177624299
0.067,0.00017151348974623888
0.06725,0.00017134254567754197
0.0675,0.00016916842610038458
0.06775,0.00016754355405100674
0.068,0.00016652266763494516
0.06825,0.00016723149212203507
0.0685,0.0001703471913026827
0.06875,0.00017535769641116233
0.069,0.0001822973438385073
0.06925,0.00019017757719037604
0.0695,0.00019746349136224477
0.06975,0.0002023441654018608
0.07,0.00020310071146021627
0.07025,0.00019875128635512307
0.0705,0.00018929347229516364
0.07075,0.00017610290091097836
0.071,0.0001616992139771556
0.07125,0.0001483613978874372
0.0715,0.0001386404101038101
0.07175,0.0001333007041869563
0.072,0.00013279440058128168
0.07225,0.00013487729747352372
0.0725,0.0001370521595825619
0.07275,0.00013667519536120345
0.073,0.00013259947755400546
0.07325,0.00012325338275683784
0.0735,0.00011043655529552438
0.07375,9.55044746244185e-05
0.074,8.029144060367935e-05
0.07425,6.776175575538795e-05
0.0745,5.8405515622771904e-05
0.07475,5.286712459917549e-05
0.075,5.013190979465134e-05
0.07525,4.987919075733161e-05
0.0755,5.016359065936094e-05
0.07575,4.97510335117539e-05
0.076,4.8535236752217544e-05
0.07625,4.5470717750191235e-05
0.0765,4.116556682222943e-05
0.07675,3.544533220716981e-05
0.077,2.893105721534667e-05
0.07725,2.197410880693367e-05
0.0775,1.543836350164039e-05
0.07775,1.0126838433568324e-05
0.078,6.911923508522767e-06
0.07825,6.225104686253168e-06
0.0785,8.237816788195694e-06
0.07875,1.2132212074925497e-05
0.079,1.6819483696231664e-05
0.07925,2.067529981497743e-05
0.0795,2.2431333908524853e-05
0.07975,2.1222028267960002e-05
0.08,1.726191094494631e-05
0.08025,1.1454282311430788e-05
0.0805,5.497290559881523e-06
0.08075,1.000976534791976e-06
0.081,-7.495768232088623e-07
0.08125,5.993012346757474e-07
0.0815,4.48139231052058e-06
0.08175,9.567435328492165e-06
0.082,1.4425125485841632e-05
0.08225,1.7520069334901937e-05
0.0825,1.8284056499884747e-05
0.08275,1.671477443576732e-05
0.083,1.356644646805534e-05
0.08325,9.914347846707669e-06
0.0835,6.8150649761145555e-06
0.08375,4.958352602522311e-06
0.084,4.632797386997217e-06
0.08425,5.6572663516017e-06
0.0845,7.5530290079495504e-06
0.08475,9.731740249122557e-06
0.085,1.182486381365434e-05
0.08525,1.3411271056966636e-05
0.0855,1.4334742610151146e-05
0.08575,1.4362008377314995e-05
0.086,1.3473629004416726e-05
0.08625,1.1734378345403775e-05
0.0865,9.420583614471232e-06
0.08675,6.915223411459315e-06
0.087,5.022930706741717e-06
0.08725,4.282350826725161e-06
0.0875,5.1586687422524825e-06
0.08775,7.556813183143776e-06
0.088,1.0979341827773728e-05
0.08825,1.4430394290823118e-05
0.0885,1.6829153317073986e-05
0.08875,1.7352130927697824e-05
0.089,1.5695774502872617e-05
0.08925,1.238279910930024e-05
0.0895,8.475793729327043e-06
0.08975,5.357505416118579e-06
0.09,4.3836841446196556e-06
0.09025,6.033892951936068e-06
0.0905,1.0255334866512021e-05
0.09075,1.6021686280397837e-05
0.091,2.2054472369920268e-05
0.09125,2.7019701925962836e-05
0.0915,3.020963163413474e-05
0.09175,3.145188170578419e-05
0.092,3.144642562195851e-05
0.09225,3.117252042239599e-05
0.0925,3.196689785454052e-05
0.09275,3.4517337908244044e-05
0.093,3.91310124976331e-05
0.09325,4.6478654838829115e-05
0.0935,5.523138101824959e-05
0.09375,6.511418797215279e-05
0.094,7.575802997437341e-05
0.09425,8.570912638176828e-05
0.0945,9.559964578474571e-05
0.09475,0.00010441190704463225
0.095,0.00011169059547977634
0.09525,0.0001169728987844235
0.0955,0.00011998224385547676
0.09575,0.00012102847584876029
0.096,0.00012108483688322318
0.09625,0.00012125707485164914
0.0965,0.00012243093871492852
0.09675,0.00012507055426320515
0.097,0.0001296446995404793
0.09725,0.00013458954805089252
0.0975,0.00013834208079929232
0.09775,0.00013906365058893747
0.098,0.00013542785577517997
0.09825,0.0001261715995948233
0.0985,0.00011293607030149667
0.09875,9.70918876475155e-05
0.099,8.161941477204262e-05
0.09925,6.92662714553566e-05
0.0995,6.106927478180992e-05
0.09975,5.7944362440465105e-05
0.1,5.863185921724419e-05
0.10025,6.054833539408828e-05
0.1005,6.230468250517735e-05
0.10075,6.147391540705223e-05
0.101,5.684950539870764e-05
0.10125,4.949583574758596e-05
0.1015,4.0248980498553034e-05
0.10175,3.1176297658610245e-05
0.102,2.4299169036139726e-05
0.10225,1.9419767881833235e-05
0.1025,1.634909819723302e-05
0.10275,1.41194044166755e-05
0.103,1.2180419056321567e-05
0.10325,9.64925464297286e-06
0.1035,6.340114487785801e-06
0.10375,1.8333445101627826e-06
0.104,-3.720759943933507e-06
0.10425,-1.0893188825655958e-05
0.1045,-1.945127801936413e-05
0.10475,-2.9629359231698713e-05
0.105,-4.0023737976716635e-05
0.10525,-4.492481377257223e-05
0.1055,-3.81403413197852e-05
0.10575,-1.525521648995239e-05
0.106,2.7363560067919934e-05
0.10625,8.963703844131729e-05
0.1065,0.00016974811673999972
0.10675,0.00026058637639287383
0.107,0.000353089945307579
0.10725,0.0004309525978299639
0.1075,0.0004783240606424407
0.10775,0.0004903386969806263
0.108,0.00045678756512332244
0.10825,0.00039036207903591865
0.1085,0.000301671861834932
0.10875,0.00020510905393964678
0.109,0.00011328122014820972
0.10925,3.598267032785015e-05
0.1095,-2.2818928991203646e-05
0.10975,-6.155336191352007e-05
0.11,-8.263805407260814e-05
0.11025,-8.998806919408675e-05
0.1105,-8.68894956166619e-05
0.11075,-7.766937377336139e-05
0.111,-6.668410355759319e-05
0.11125,-5.4735888462515306e-05
0.1115,-4.430963942033607e-05
0.11175,-3.493280855838504e-05
0.112,-2.743967341139363e-05
0.11225,-2.1238993993146397e-05
0.1125,-1.5655895031208048e-05
0.11275,-9.103822318644636e-06
0.113,-1.5130063742347994e-06
0.11325,7.345608292951598e-06
0.1135,1.666179783940335e-05
0.11375,2.5397022979577277e-05
0.114,3.180277240820433e-05
0.11425,3.443824035482698e-05
0.1145,3.2392623045224914e-05
0.11475,2.6004128448094436e-05
0.115,1.6870056287087722e-05
0.11525,7.766387407609037e-06
0.1155,1.7539182186561457e-06
0.11575,1.4551475066979425e-06
0.116,7.964738866445588e-06
0.11625,2.0709648859858043e-05
0.1165,3.719634628175617e-05
0.11675,5.396730599271925e-05
0.117,6.74949754446006e-05
0.11725,7.594196202685504e-05
0.1175,7.75953483252068e-05
0.11775,7.391728039985804e-05
0.118,6.809881623357275e-05
0.11825,6.27892511951707e-05
0.1185,6.074521038005946e-05
0.11875,6.403232858370361e-05
0.119,7.27430859181596e-05
0.11925,8.617833402755434e-05
0.1195,0.00010212789518733247
0.11975,0.00011865132240179908
0.12,0.0001331576036304872
0.12025,0.00014517798099986248
0.1205,0.0001532423484530326
0.12075,0.00015814513593028848
0.121,0.00015975754302693191
0.12125,0.00015938913545622627
0.1215,0.00015812882524245028
0.12175,0.0001565603878674953
0.122,0.00015643718752707348
0.12225,0.000158623050431993
0.1225,0.0001633267015584938
0.12275,0.00017148595985345751
0.123,0.00018173079396724854
0.12325,0.00019275830892321919
0.1235,0.00020252272118457355
0.12375,0.00020795669187821035
0.124,0.00020770120471477613
0.12425,0.0002017658052767617
0.1245,0.000190564755794811
0.12475,0.000176152599136975
0.125,0.00016148175964874798
0.12525,0.0001494250596365817
0.1255,0.00014143150806085822
0.12575,0.0001392329973722841
0.126,0.00014095918154218815
0.12625,0.0001451877487774267
0.1265,0.0001488680951910968
0.12675,0.00014959772558826128
0.127,0.00014582569164659523
0.12725,0.00013677668624950028
0.1275,0.00012287896196201507
0.12775,0.0001064316167432529
0.128,8.878191128292934e-05
0.12825,7.316568885703052e-05
0.1285,6.0897523947905376e-05
0.12875,5.2696964841449376e-05
0.129,4.869977720191112e-05
0.12925,4.88493509925807e-05
0.1295,5.08152421576592e-05
0.12975,5.363662273754272e-05
0.13,5.523487034032113e-05
0.13025,5.4432735283246415e-05
0.1305,5.0152715948881245e-05
0.13075,4.2421546689262435e-05
0.131,3.173706541879767e-05
0.13125,1.9697217047209556e-05
0.1315,7.829813694099514e-06
0.13175,-1.738709689508601e-06
0.132,-7.694096286405728e-06
0.13225,-9.077393297399129e-06
0.1325,-6.20793012450608e-06
0.13275,5.003855296796472e-08
0.133,7.686547231580765e-06
0.13325,1.4722765239845995e-05
0.1335,1.9126520491010202e-05
0.13375,1.9720250188247114e-05
0.134,1.6000360765518878e-05
0.13425,8.71724161454194e-06
0.1345,-8.025627137660841e-07
0.13475,-1.0463646284468514e-05
0.135,-1.839186593671327e-05
0.13525,-2.28208358557698e-05
0.1355,-2.2987024670165953e-05
0.13575,-1.8795886657546584e-05
0.136,-1.1314022398595317e-05
0.13625,-2.1218539771472916e-06
0.1365,6.608977804720298e-06
0.13675,1.3002729211531008e-05
0.137,1.545371888979912e-05
0.13725,1.3409920681152888e-05
0.1375,7.180134874642727e-06
0.13775,-1.7226986409040346e-06
0.138,-1.1414776356075215e-05
0.13825,-1.951801191115059e-05
0.1385,-2.4221619201008004e-05
0.13875,-2.4353635326538603e-05
0.139,-2.0011083245227797e-05
0.13925,-1.213115647969055e-05
0.1395,-2.683364748523869e-06
0.13975,6.18358903634165e-06
0.14,1.2439738286699066e-05
0.14025,1.4800656482579934e-05
0.1405,1.2887204928573248e-05
0.14075,7.3075119911629114e-06
0.141,-5.90672446294488e-07
0.14125,-8.964246901222069e-06
0.1415,-1.6092582249453713e-05
0.14175,-2.0585342037901725e-05
0.142,-2.1624474671133374e-05
0.14225,-1.9009906361770173e-05
0.1425,-1.3388769971771676e-05
0.14275,-5.736547808492698e-06
0.143,2.4266770854488895e-06
0.14325,9.599957814440389e-06
0.1435,1.4252615549704089e-05
0.14375,1.539413407913058e-05
0.144,1.2553802037006656e-05
0.14425,6.220871942379451e-06
0.1445,-2.401851801919295e-06
0.14475,-1.1316007961753337e-05
0.145,-1.8361761461506814e-05
0.14525,-2.151689171365862e-05
0.1455,-1.967104923958853e-05
0.14575,-1.2771788396065492e-05
0.146,-2.100859212044176e-06
0.14625,1.0175606937441327e-05
0.1465,2.1412609973512734e-05
0.14675,2.9364748373481084e-05
0.147,3.260360977430604e-05
0.14725,3.118013599970686e-05
0.1475,2.627901413372042e-05
0.14775,2.0183196189197896e-05
0.148,1.550428306058868e-05
0.14825,1.4416722646525164e-05
0.1485,1.83510623705557e-05
0.14875,2.734185782493248e-05
0.149,4.027447021447194e-05
0.14925,5.5665468179089365e-05
0.1495,7.120208597202968e-05
0.14975,8.528525814600505e-05
0.15,9.654903589891855e-05
0.15025,0.00010388347863327728
0.1505,0.00010707333833697757
0.15075,0.00010695680579315744
0.151,0.00010405671315870475
0.15125,9.971559848872226e-05
0.1515,9.499262131485424e-05
0.15175,9.142143425594039e-05
0.152,8.97856508067515e-05
0.15225,9.127360487177012e-05
0.1525,9.527581489993639e-05
0.15275,0.00010047029366712507
0.153,0.00010562404254536644
0.15325,0.0001079567432687231
0.1535,0.0001053491359286
0.15375,9.749865052721483e-05
0.154,8.391633828405039e-05
0.15425,6.612268149909383e-05
0.1545,4.694433701484422e-05
0.15475,3.019158343413252e-05
0.155,1.717544558664081e-05
0.15525,1.063914693818846e-05
0.1555,9.750704636687703e-06
0.15575,1.3532776779591093e-05
0.156,1.912508860371649e-05
0.15625,2.416987510820145e-05
0.1565,2.5933843428634304e-05
0.15675,2.3811017773638565e-05
0.157,1.7426960039352458e-05
0.15725,8.255385289603016e-06
0.1575,-2.458011919776516e-06
0.15775,-1.2652096069483367e-05
0.158,-2.1371509891239558e-05
0.15825,-2.753480498392209e-05
0.1585,-3.1501950636872907e-05
0.15875,-3.337978317833953e-05
0.159,-3.471327521548841e-05
0.15925,-3.635821395368311e-05
0.1595,-3.9670595377221216e-05
0.15975,-4.443460092345917e-05
0.16,-4.963608876581808e-05
0.16025,-5.4682415165893244e-05
0.1605,-5.766648920412837e-05
0.16075,-5.565071858613448e-05
0.161,-4.378139186407082e-05
0.16125,-1.7271935255906142e-05
0.1615,2.6651367820213072e-05
0.16175,8.989321919187722e-05
0.162,0.0001691694183471352
0.16225,0.0002592123142269234
0.1625,0.0003478258223418933
0.16275,0.000422507185665837
0.163,0.00046626121098624994
0.16325,0.0004703668404149213
0.1635,0.00043671116558386975
0.16375,0.00036579982671652763
0.164,0.0002745346700689307
0.16425,0.00017447056728711103
0.1645,7.931752025461098e-05
0.16475,-1.7856811345627074e-06
0.165,-6.288203744366046e-05
0.16525,-0.00010272660808682835
0.1655,-0.00012212703305011636
0.16575,-0.00012480187267525523
0.166,-0.00011633508009572827
0.16625,-0.0001022059605780574
0.1665,-8.519431920147672e-05
0.16675,-6.851485340511227e-05
0.167,-5.43494265427766e-05
0.16725,-4.374425658873239e-05
0.1675,-3.78992542190972e-05
0.16775,-3.638413975092311e-05
0.168,-3.667112932569447e-05
0.16825,-3.6961812627328507e-05
0.1685,-3.526753242820385e-05
0.16875,-3.055961652158073e-05
0.169,-2.2368733191819337e-05
0.16925,-1.181945060745216e-05
0.1695,-7.658872888250656e-07
0.16975,8.117863479002544e-06
0.17,1.2760422141000876e-05
0.17025,1.1914286069778295e-05
0.1705,6.078718065563339e-06
0.17075,-2.9345719619073155e-06
0.171,-1.1951047565884477e-05
0.17125,-1.7854828319798547e-05
0.1715,-1.8076150255335515e-05
0.17175,-1.1883072192722823e-05
0.172,-1.1730792657184413e-08
0.17225,1.4991952441486691e-05
0.1725,3.0121440376566727e-05
0.17275,4.235877342614383e-05
0.173,5.0185192407813804e-05
0.17325,5.2995184499020875e-05
0.1735,5.2299732752562506e-05
0.17375,5.039026279532879e-05
0.174,4.884964402964579e-05
0.17425,4.979019240522976e-05
0.1745,5.3689707206401534e-05
0.17475,6.097371979724786e-05
0.175,7.041037661563039e-05
0.17525,8.139982204669288e-05
0.1755,9.295660728694452e-05
0.17575,0.00010472114131721596
0.176,0.00011601117788920808
0.17625,0.00012612979171958407
0.1765,0.00013452043333002476
0.17675,0.00014093287586372855
0.177,0.00014405127702379653
0.17725,0.00014407567550553182
0.1775,0.0001420525385165647
0.17775,0.0001388510765680787
0.178,0.0001368344556829797
0.17825,0.00013727709912498426
0.1785,0.00014152738696419071
0.17875,0.00014965167258870917
0.179,0.00015955963939665678
0.17925,0.00016885520102896415
0.1795,0.00017536117346113168
0.17975,0.000176165159775174
0.18,0.0001711966863396274
0.18025,0.00016079590152977773
0.1805,0.00014746358768322903
0.18075,0.00013383107697202402
0.181,0.0001223252361550833
0.18125,0.00011459765641114092
0.1815,0.00011071370938002638
0.18175,0.00011027709656388856
0.182,0.00011079713639357196
0.18225,0.0001104588647864174
0.1825,0.000107571328830752
0.18275,0.00010200520729584523
0.183,9.344342140709616e-05
0.18325,8.27772824604112e-05
0.1835,7.150574418773635e-05
0.18375,6.010762964364814e-05
0.184,4.919983564389608e-05
0.18425,3.919272690799774e-05
0.1845,3.0461885433975165e-05
0.18475,2.2909981904805525e-05
0.185,1.7084705525464532e-05
0.18525,1.2942418181853424e-05
0.1855,1.0701510199812151e-05
0.18575,9.823918684397917e-06
0.186,9.50085040159917e-06
0.18625,8.58303362923655e-06
0.1865,6.0306816725405384e-06
0.18675,1.060041158896559e-06
0.187,-6.225164688387593e-06
0.18725,-1.5085636544969494e-05
0.1875,-2.4047255171643725e-05
0.18775,-3.155663806799418e-05
0.188,-3.612653464039465e-05
0.18825,-3.724228330003505e-05
0.1885,-3.515670819739957e-05
0.18875,-3.1052051129962426e-05
0.189,-2.6395195046511705e-05
0.18925,-2.2875793704840025e-05
0.1895,-2.1538689591952717e-05
0.18975,-2.2833656745269763e-05
0.19,-2.6409476391763078e-05
0.19025,-3.138019921997827e-05
0.1905,-3.664081857173878e-05
0.19075,-4.113008509361007e-05
0.191,-4.4045816531062094e-05
0.19125,-4.518943014235265e-05
0.1915,-4.454826434089851e-05
0.19175,-4.2452668662712717e-05
0.192,-3.940512389886593e-05
0.19225,-3.6048015575001064e-05
0.1925,-3.2960743207113876e-05
0.19275,-3.073308101763075e-05
0.193,-2.9785010543290606e-05
0.19325,-3.0367376760245634e-05
0.1935,-3.250723130274172e-05
0.19375,-3.576359229247043e-05
0.194,-3.9517218657516363e-05
0.19425,-4.293099085865649e-05
0.1945,-4.522455273706278e-05
0.19475,-4.587134259898684e-05
0.195,-4.4709060210149565e-05
0.19525,-4.214168608369701e-05
0.1955,-3.879032298017425e-05
0.19575,-3.541600895920722e-05
0.196,-3.2755251225873384e-05
0.19625,-3.1296704833794783e-05
0.1965,-3.1159927819189585e-05
0.19675,-3.225090717450922e-05
0.197,-3.430436491731385e-05
0.19725,-3.6898603642554085e-05
0.1975,-3.9684444019806045e-05
0.19775,-4.2240782692682776e-05
0.198,-4.420679907392341e-05
0.19825,-4.513418031238891e-05
0.1985,-4.46083153815688e-05
0.19875,-4.2482573067389845e-05
0.199,-3.894737386555682e-05
0.19925,-3.449982097457587e-05
0.1995,-3.0134694666985864e-05
0.19975,-2.697455140076411e-05
0.2,-2.6004895814941192e-05
0.20025,-2.76097413389975e-05
0.2005,-3.149515749626818e-05
0.20075,-3.659218337604408e-05
0.201,-4.1283557661205704e-05
0.20125,-4.396678095277725e-05
0.2015,-4.349544778322812e-05
0.20175,-3.96710679268742e-05
0.202,-3.3162317946392594e-05
0.20225,-2.54592425260046e-05
0.2025,-1.808393883618244e-05
0.20275,-1.2474813309614795e-05
0.203,-9.100027421023744e-06
0.20325,-7.672047984533334e-06
0.2035,-7.1235453666506645e-06
0.20375,-6.251817263551907e-06
0.204,-3.865996880563443e-06
0.20425,4.76895545892673e-07
0.2045,6.739835826953096e-06
0.20475,1.4204896409211245e-05
0.205,2.2354636061466914e-05
0.20525,3.053203533878524e-05
0.2055,3.891516903042747e-05
0.20575,4.7449226425675314e-05
0.206,5.6388526689221095e-05
0.20625,6.593809343637689e-05
0.2065,7.478410070578393e-05
0.20675,8.217979256037582e-05
0.207,8.675555430806529e-05
0.20725,8.745491665249185e-05
0.2075,8.451816658638502e-05
0.20775,7.8779839805304e-05
0.208,7.214570802477779e-05
0.20825,6.719838080682087e-05
0.2085,6.449497360424304e-05
0.20875,6.527047463872918e-05
0.209,6.804439133598997e-05
0.20925,7.068487471101116e-05
0.2095,7.087581674291839e-05
0.20975,6.612030652456517e-05
0.21,5.6060318803013314e-05
0.21025,4.159781556304826e-05
0.2105,2.5084912245858486e-05
0.21075,9.427305317035078e-06
0.211,-2.6585590482669407e-06
0.21125,-9.774414471846731e-06
0.2115,-1.212185767753817e-05
0.21175,-1.1293977690542717e-05
0.212,-9.516547211325469e-06
0.21225,-8.84001970630884e-06
0.2125,-1.0563652359810184e-05
0.21275,-1.4689940936912705e-05
0.213,-2.035507052172739e-05
0.21325,-2.61861917755464e-05
0.2135,-3.108749415229942e-05
0.21375,-3.468369294504145e-05
0.214,-3.7582904488329185e-05
0.21425,-4.057439400581521e-05
0.2145,-4.5157775629548234e-05
0.21475,-5.185287681702758e-05
0.215,-6.190662975935773e-05
0.21525,-7.770143125497847e-05
0.2155,-9.357121190422823e-05
0.21575,-0.00010537163287155294
0.216,-0.00010986876622176248
0.21625,-0.0001067592617698531
0.2165,-9.548431027258433e-05
0.21675,-7.633536940507294e-05
0.217,-4.957824481074242e-05
0.21725,-1.4434516328518028e-05
0.2175,3.131104714716675e-05
0.21775,8.877703743089574e-05
0.218,0.00015868418466524233
0.21825,0.00023986204557794813
0.2185,0.00032541825052997763
0.21875,0.00039560899348452044
0.219,0.0004378874801138594
0.21925,0.0004435858622424603
0.2195,0.000410006188408364
0.21975,0.0003437058152345286
0.22,0.0002530886734264621
0.22025,0.00015486373136514668
0.2205,6.194423441187923e-05
0.22075,-1.5298478993860778e-05
0.221,-7.190997398417079e-05
0.22125,-0.00010644723733845185
0.2215,-0.00012204912106397067
0.22175,-0.00012181089181072081
0.222,-0.00011266914078659793
0.22225,-9.903330154780536e-05
0.2225,-8.403905685805612e-05
0.22275,-6.927103845652831e-05
0.223,-5.5938669744031697e-05
0.22325,-4.407540452333028e-05
0.2235,-3.503865783582304e-05
0.22375,-2.8608196699880824e-05
0.224,-2.4949745409185526e-05
0.22425,-2.3098322014257945e-05
0.2245,-2.2659477985666043e-05
0.22475,-2.1915246000956845e-05
0.225,-1.9955517270545964e-05
0.22525,-1.5674324814152035e-05
0.2255,-9.560002979392513e-06
0.22575,-2.5584248911448466e-06
0.226,3.3263702014630173e-06
0.22625,6.556213035679994e-06
0.2265,5.918395700881475e-06
0.22675,2.145107878574702e-06
0.227,-3.2209738953969743e-06
0.22725,-7.423283039525543e-06
0.2275,-8.264677277376535e-06
0.22775,-3.972311836971289e-06
0.228,5.154671915350208e-06
0.22825,1.7853639274187917e-05
0.2285,3.118008903898967e-05
0.22875,4.275492481099831e-05
0.229,5.016458011890297e-05
0.22925,5.325696120231371e-05
0.2295,5.256262340047291e-05
0.22975,5.051054133626836e-05
0.23,4.9883701755584506e-05
0.23025,5.204978057801262e-05
0.2305,5.833471993964741e-05
0.23075,6.866314898769759e-05
0.231,8.117154911665018e-05
0.23125,9.437178933325983e-05
0.2315,0.00010610747213983506
0.23175,0.00011541653519715384
0.232,0.00012210307384873418
0.23225,0.0001263606699289751
0.2325,0.00012901936449618954
0.23275,0.0001310202388132954
0.233,0.00013290894920336244
0.23325,0.00013506204435332725
0.2335,0.00013704065842933677
0.23375,0.00013944112396553827
0.234,0.0001422607605631399
0.23425,0.00014550631132389613
0.2345,0.00014899775281465623
0.23475,0.00015274092579761737
0.235,0.00015555296700877066
0.23525,0.00015681728954755725
0.2355,0.00015572919803237328
0.23575,0.00015109124539586835
0.236,0.0001434949524027564
0.23625,0.0001338487801393561
0.2365,0.00012288013376440265
0.23675,0.00011289756217073561
0.237,0.00010518563860830716
0.23725,0.00010012115758542436
0.2375,9.78823849145073e-05
0.23775,9.695392491342092e-05
0.238,9.591182777005278e-05
0.23825,9.268333905247192e-05
0.2385,8.659456365017958e-05
0.23875,7.712522469163808e-05
0.239,6.494208920061612e-05
0.23925,5.15063219724019e-05
0.2395,3.864267681226433e-05
0.23975,2.755218266874784e-05
0.24,1.9668300811529706e-05
0.24025,1.4832087357439678e-05
0.2405,1.2913843522620212e-05
0.24075,1.2750305161864966e-05
0.241,1.317353151596554e-05
0.24125,1.277317309086737e-05
0.2415,1.0628850388637968e-05
0.24175,6.150066753231145e-06
0.242,-5.608949309668784e-07
0.24225,-8.9155556171561e-06
0.2425,-1.774800433508655e-05
0.24275,-2.5756455522303473e-05
0.243,-3.156565641285271e-05
0.24325,-3.429693982032041e-05
0.2435,-3.359604140106392e-05
0.24375,-3.0031379329327946e-05
0.244,-2.4746238918677397e-05
0.24425,-1.9496060660235482e-05
0.2445,-1.597929341889176e-05
0.24475,-1.543930324286936e-05
0.245,-1.832135739123391e-05
0.24525,-2.4078548411128344e-05
0.2455,-3.136064203912989e-05
0.24575,-3.829097027877719e-05
0.246,-4.316409854776264e-05
0.24625,-4.478339697113581e-05
0.2465,-4.282961925229052e-05
0.24675,-3.801010897522693e-05
0.247,-3.156453496516747e-05
0.24725,-2.521065749561335e-05
0.2475,-2.0430316442757264e-05
0.24775,-1.816442526032006e-05
0.248,-1.8679585449404662e-05
0.24825,-2.1737286084652982e-05
0.2485,-2.6379712221727646e-05
0.24875,-3.1672643490746986e-05
0.249,-3.6524345433200996e-05
0.24925,-3.997970386686611e-05
0.2495,-4.1369476222942635e-05
0.24975,-4.029674465288416e-05
0.25,-3.6744379834879836e-05
0.25025,-3.115732388129199e-05
0.2505,-2.4463118704749138e-05
0.25075,-1.8008697623063234e-05
0.251,-1.3326350245417983e-05
0.25125,-1.176488893604306e-05
0.2515,-1.4072225327148211e-05
0.25175,-2.0025745084986048e-05
0.252,-2.8382063385519476e-05
0.25225,-3.700850921707094e-05
0.2525,-4.3407872841203204e-05
0.25275,-4.55924260655159e-05
0.253,-4.25519031240914e-05
0.25325,-3.479803715662634e-05
0.2535,-2.4201253530150366e-05
0.25375,-1.3588082410827392e-05
0.254,-5.917863929233752e-06
0.25425,-3.3031566844558888e-06
0.2545,-6.387654776031441e-06
0.25475,-1.4212262622314397e-05
0.255,-2.43848565442344e-05
0.25525,-3.391986660081258e-05
0.2555,-4.016993514835149e-05
0.25575,-4.136364351798994e-05
0.256,-3.729268019782471e-05
0.25625,-2.908581947794409e-05
0.2565,-1.886308697410884e-05
0.25675,-8.86257081291e-06
0.257,-1.0582935718778929e-06
0.25725,3.665424305161777e-06
0.2575,5.141222618986003e-06
0.25775,4.181405612146937e-06
0.258,1.9842107714732947e-06
0.25825,-2.4336075453476855e-07
0.2585,-1.3474607218898966e-06
0.25875,-4.2619957201368136e-07
0.259,3.101368446558345e-06
0.25925,9.763470271226152e-06
0.2595,1.9573379543538163e-05
0.25975,3.2395633764452645e-05
0.26,4.729117620001677e-05
0.26025,6.257561965111303e-05
0.2605,7.638784752303412e-05
0.26075,8.650186197207944e-05
0.261,9.175436106534429e-05
0.26125,9.171832523495054e-05
0.2615,8.696983213590092e-05
0.26175,7.983142612536514e-05
0.262,7.33271681686477e-05
0.26225,6.953796626155475e-05
0.2625,7.10077216154268e-05
0.26275,7.702744183096917e-05
0.263,8.63381013328131e-05
0.26325,9.582718087338717e-05
0.2635,0.00010160855805163731
0.26375,0.00010158151738915623
0.264,9.393048342160696e-05
0.26425,7.95275990741888e-05
0.2645,6.071510729365175e-05
0.26475,4.089860306603077e-05
0.265,2.3784821109824503e-05
0.26525,1.1855200020205434e-05
0.2655,6.045647730727662e-06
0.26575,5.863393271825675e-06
0.266,9.358813779863858e-06
0.26625,1.4105841949469488e-05
0.2665,1.7676014505352036e-05
0.26675,1.846296371021439e-05
0.267,1.575520440638778e-05
0.26725,9.800352054819871e-06
0.2675,1.4572544787265724e-06
0.26775,-7.97855556143654e-06
0.268,-1.717043300820514e-05
0.26825,-2.5196412818219127e-05
0.2685,-3.155361820394487e-05
0.26875,-3.579681330285191e-05
0.269,-3.807621481141683e-05
0.26925,-3.86934234717359e-05
0.2695,-3.8783408965269254e-05
0.26975,-4.008505603051157e-05
0.27,-4.422344574383542e-05
0.27025,-5.0835682278098666e-05
0.2705,-5.8238599440849924e-05
0.27075,-6.402545432872008e-05
0.271,-6.547215732088107e-05
0.27125,-5.750544515272227e-05
0.2715,-3.4975014024138306e-05
0.27175,6.5274213954092535e-06
0.272,7.012924435382777e-05
0.27225,0.000152156068944832
0.2725,0.00024327617555189836
0.27275,0.0003321134898605852
0.273,0.0004065229569944998
0.27325,0.0004529779391494025
0.2735,0.0004580663350107441
0.27375,0.00041901402442583695
0.274,0.00034846834300379344
0.27425,0.00025825837491203754
0.2745,0.00016029554440922134
0.27475,6.715958393685208e-05
0.275,-9.371729643976452e-06
0.27525,-6.3627299940943e-05
0.2755,-9.609080519368423e-05
0.27575,-0.00010893968311646687
0.276,-0.00010628365078064919
0.27625,-9.295216350717518e-05
0.2765,-7.511554342578994e-05
0.27675,-5.7706775921684996e-05
0.277,-4.306655424194838e-05
0.27725,-3.296268719756184e-05
0.2775,-2.7340444953388146e-05
0.27775,-2.524338277481658e-05
0.278,-2.489268844025837e-05
0.27825,-2.4120327288926042e-05
0.2785,-2.098365139325712e-05
0.27875,-1.5141110894343488e-05
0.279,-6.95076590761634e-06
0.27925,2.4009457620467494e-06
0.2795,1.1460829067180353e-05
0.27975,1.8398788313424167e-05
0.28,2.2019873925211857e-05
0.28025,2.1516592519525037e-05
0.2805,1.741660500055268e-05
0.28075,1.099927078573377e-05
0.281,4.607174904331593e-06
0.28125,3.951911819325057e-07
0.2815,3.6571578163721083e-07
0.28175,5.281373580312047e-06
0.282,1.502359898823485e-05
0.28225,2.7949473630408056e-05
0.2825,4.2065812619349006e-05
0.28275,5.46222261138553e-05
0.283,6.424169419311193e-05
0.28325,6.966412896626043e-05
0.2835,7.09757385747107e-05
0.28375,6.973140557151985e-05
0.284,6.80551074794887e-05
0.28425,6.766952620785014e-05
0.2845,7.046290648636838e-05
0.28475,7.724940567991347e-05
0.285,8.790594174496774e-05
0.28525,0.00010099601297648579
0.2855,0.0001154736102748814
0.28575,0.00012935066278766633
0.286,0.0001407307661046218
0.28625,0.00014913527503420177
0.2865,0.0001541789173668131
0.28675,0.00015603615018046468
0.287,0.00015530484130344294
0.28725,0.0001541493296894893
0.2875,0.00015298095350984466
0.28775,0.0001533631996384143
0.288,0.00015508262488367013
0.28825,0.00015940863799538375
0.2885,0.00016461152384335875
0.28875,0.00017070261418180774
0.289,0.00017541236772669532
0.28925,0.00017825675014639434
0.2895,0.00017770465454464553
0.28975,0.000173905447344922
0.29,0.0001670004888521003
0.29025,0.00015758378044293067
0.2905,0.00014671427682278777
0.29075,0.00013638996306878767
0.291,0.00012696414720256245
0.29125,0.00011981021492338022
0.2915,0.00011500790822262176
0.29175,0.00011219445051255253
0.292,0.00011018317551607495
0.29225,0.0001077536503387058
0.2925,0.00010373774379480007
0.29275,9.77230728528596e-05
0.293,8.908177566622985e-05
0.29325,7.820438237684634e-05
0.2935,6.648896973530588e-05
0.29375,5.4894041471638196e-05
0.294,4.508797191317365e-05
0.29425,3.770529630159689e-05
0.2945,3.295901861678041e-05
0.29475,3.0363883307928443e-05
0.295,2.9328808209305055e-05
0.29525,2.8584878387618144e-05
0.2955,2.722747074165959e-05
0.29575,2.4522455554483378e-05
0.296,2.043402637260158e-05
0.29625,1.5265757303855395e-05
0.2965,9.703770745364663e-06
0.29675,4.605298337581597e-06
0.297,6.152876625431335e-07
0.29725,-1.9696591106894226e-06
0.2975,-3.1229270709860644e-06
0.29775,-3.1893047409176504e-06
0.298,-2.644850303801712e-06
0.29825,-1.9622729860143702e-06
0.2985,-1.494351773759227e-06
0.29875,-1.3975288748656824e-06
0.299,-1.708568926697722e-06
0.29925,-2.3112193390412034e-06
0.2995,-3.085690812238192e-06
0.29975,-3.913482741967951e-06
0.3,-4.7700104392350655e-06
0.30025,-5.467731829392529e-06
0.3005,-5.898853008989927e-06
0.30075,-5.958552802093492e-06
0.301,-5.508420346094084e-06
0.30125,-4.555259740808224e-06
0.3015,-3.2229182785720874e-06
0.30175,-1.8483185686604756e-06
0.302,-8.087063163884866e-07
0.30225,-4.385117386111506e-07
0.3025,-8.753919250982003e-07
0.30275,-1.9607276298950037e-06
0.303,-3.2634510404345233e-06
0.30325,-4.179052225883413e-06
0.3035,-4.190315862553966e-06
0.30375,-3.026706775732748e-06
0.304,-8.804745879683499e-07
0.30425,1.6935981096842144e-06
0.3045,3.846573755277771e-06
0.30475,4.820664821673527e-06
0.305,4.159472332244374e-06
0.30525,2.00444641074082e-06
0.3055,-9.941817122896782e-07
0.30575,-3.7727508665576856e-06
0.306,-5.288724612221437e-06
0.30625,-4.8192834314508785e-06
0.3065,-2.314940101852797e-06
0.30675,1.6406622413704121e-06
0.307,5.9080749385842365e-06
0.30725,9.231362205959423e-06
0.3075,1.0602793558049875e-05
0.30775,9.664428986234037e-06
0.308,6.759900614174236e-06
0.30825,2.8865576547152955e-06
0.3085,-7.049048442593406e-07
0.30875,-2.856395296683554e-06
0.309,-2.8910111707274543e-06
0.30925,-7.287204793972478e-07
0.3095,3.0991685683641765e-06
0.30975,7.772305261279024e-06
0.31,1.2333868048871195e-05
0.31025,1.6184067674601023e-05
0.3105,1.893478799382429e-05
0.31075,2.0689426409761224e-05
0.311,2.1809240798664497e-05
0.31125,2.2646654547014713e-05
0.3115,2.3612541499736005e-05
0.31175,2.5175082355926293e-05
0.312,2.7606043558348768e-05
0.31225,3.136283284871958e-05
0.3125,3.684679600054131e-05
0.31275,4.428705531895118e-05
0.313,5.3816390829966414e-05
0.31325,6.512057477971743e-05
0.3135,7.758116872560501e-05
0.31375,8.951849980177963e-05
0.314,9.932211418986145e-05
0.31425,0.0001063131449040701
0.3145,0.00010940035578937667
0.31475,0.00010921270039130764
0.315,0.00010708773361860251
0.31525,0.00010504329522496657
0.3155,0.00010424179834787404
0.31575,0.00010635583749280972
0.316,0.0001116410360304798
0.31625,0.00011803489477894174
0.3165,0.00012439379021521814
0.31675,0.00012800619603459807
0.317,0.00012680173508475135
0.31725,0.00012017342328042832
0.3175,0.00010828487147397927
0.31775,9.332983339317196e-05
0.318,7.703246650869505e-05
0.31825,6.32056609980414e-05
0.3185,5.253422130187447e-05
0.31875,4.609399963407952e-05
0.319,4.3620473927257775e-05
0.31925,4.412606060186143e-05
0.3195,4.569439827272407e-05
0.31975,4.6548436556002017e-05
0.32,4.564506621386724e-05
0.32025,4.252217470292364e-05
0.3205,3.7123387200563255e-05
0.32075,3.0182599072972158e-05
0.321,2.2331058945002257e-05
0.32125,1.4603429391531165e-05
0.3215,7.645908779204498e-06
0.32175,2.244866447209024e-06
0.322,-1.6410069874228718e-06
0.32225,-3.95070421569742e-06
0.3225,-5.16133027504871e-06
0.32275,-5.920534706155616e-06
0.323,-7.703766743294018e-06
0.32325,-1.1945915732659714e-05
0.3235,-1.8963049869681624e-05
0.32375,-2.7257383277230575e-05
0.324,-3.506906553624243e-05
0.32425,-3.866709001925084e-05
0.3245,-3.366665156885454e-05
0.32475,-1.387693967283256e-05
0.325,2.431447022811841e-05
0.32525,8.403581250334582e-05
0.3255,0.0001620776766682132
0.32575,0.0002523539154205253
0.326,0.0003433691920364404
0.32625,0.0004227968843676321
0.3265,0.00047144356764371946
0.32675,0.00047889834261188803
0.327,0.0004463654460900159
0.32725,0.00038233050244448235
0.3275,0.00029583006124390195
0.32775,0.0001964693133660091
0.328,0.00010051212080675063
0.32825,1.996830849610455e-05
0.3285,-3.895129184588813e-05
0.32875,-7.714640734176349e-05
0.329,-9.551660393203571e-05
0.32925,-9.812804266006491e-05
0.3295,-8.911009169560528e-05
0.32975,-7.361961940573153e-05
0.33,-5.693909472957242e-05
0.33025,-4.230939775710935e-05
0.3305,-3.096193457534003e-05
0.33075,-2.3866760738852312e-05
0.331,-1.9662067754086835e-05
0.33125,-1.7651790283454767e-05
0.3315,-1.542134799542694e-05
0.33175,-1.1558617244934059e-05
0.332,-4.906038336790839e-06
0.33225,3.978326079153868e-06
0.3325,1.4415400587895674e-05
0.33275,2.4653536074231154e-05
0.333,3.3036811629068194e-05
0.33325,3.764860355128183e-05
0.3335,3.772945540099168e-05
0.33375,3.309919146708947e-05
0.334,2.533757195391596e-05
0.33425,1.6623862207871475e-05
0.3345,1.0087626304205536e-05
0.33475,8.03742545548603e-06
0.335,1.2284218437491238e-05
0.33525,2.268761157645751e-05
0.3355,3.8006679619260135e-05
0.33575,5.475315952978757e-05
0.336,7.035415633760677e-05
0.33625,8.178910773280405e-05
0.3365,8.70685951389635e-05
0.33675,8.670151001516439e-05
0.337,8.205621201836992e-05
0.33725,7.622270195496639e-05
0.3375,7.188894590121203e-05
0.33775,7.196887272723465e-05
0.338,7.787953082466475e-05
0.33825,8.970410617435892e-05
0.3385,0.00010592758201533735
0.33875,0.0001237419620065894
0.339,0.00014108740644801438
0.33925,0.00015534160408056343
0.3395,0.00016508256043087563
0.33975,0.00016961357934692424
0.34,0.00017018543385004652
0.34025,0.00016716011297494696
0.3405,0.0001633572173079314
0.34075,0.00016034086058494112
0.341,0.00015963737992014248
0.34125,0.00016229422270404268
0.3415,0.00016825097256145972
0.34175,0.00017702242663541798
0.342,0.00018732925525020335
0.34225,0.0001973213669028896
0.3425,0.00020513969197984714
0.34275,0.00020860926428706918
0.343,0.00020681593424258507
0.34325,0.0001999646198253085
0.3435,0.00018820332437044667
0.34375,0.00017414456321700677
0.344,0.0001595136632119442
0.34425,0.00014725751352810012
0.3445,0.000139568704027064
0.34475,0.00013661360789400483
0.345,0.000138212959195309
0.34525,0.00014203159785366448
0.3455,0.0001466265136390649
0.34575,0.00014765115911389066
0.346,0.0001439235802084308
0.34625,0.00013416912946512174
0.3465,0.00011916613310172181
0.34675,0.00010068621739536769
0.347,8.16186384712639e-05
0.34725,6.549367061907285e-05
0.3475,5.339155312806184e-05
0.34775,4.7579834007166896e-05
0.348,4.725481368697859e-05
0.34825,5.0684027978746854e-05
0.3485,5.5763435138469813e-05
0.34875,5.980019796645166e-05
0.349,6.073221907183507e-05
0.34925,5.7294001694534016e-05
0.3495,4.9418594438348934e-05
0.34975,3.822099790553863e-05
0.35,2.544405395121618e-05
0.35025,1.3237095318353937e-05
0.3505,3.594130240408154e-06
0.35075,-2.1261400313930033e-06
0.351,-3.275135409289046e-06
0.35125,-1.7250489688852956e-07
0.3515,5.996545737752062e-06
0.35175,1.352165754093444e-05
0.352,2.044317157146338e-05
0.35225,2.4933485176619986e-05
0.3525,2.5739682419656756e-05
0.35275,2.2366177721252254e-05
0.353,1.537798141049611e-05
0.35325,6.102257463576209e-06
0.3535,-3.445206770272139e-06
0.35375,-1.1149941876810104e-05
0.354,-1.518336646696687e-05
0.35425,-1.4663774418740794e-05
0.3545,-9.594929657361641e-06
0.35475,-1.2388222601518668e-06
0.355,8.433562409413712e-06
0.35525,1.699950457261282e-05
0.3555,2.240781665815981e-05
0.35575,2.3286750456644917e-05
0.356,1.950683112292889e-05
0.35625,1.195765537811565e-05
0.3565,2.6297351688432964e-06
0.35675,-6.26364718941972e-06
0.357,-1.2532116219257907e-05
0.35725,-1.4704686300345725e-05
0.3575,-1.231920883438192e-05
0.35775,-6.008532070231645e-06
0.358,2.6364436914198044e-06
0.35825,1.1596691975851496e-05
0.3585,1.890191164836914e-05
0.35875,2.2861533123317445e-05
0.359,2.269117333006984e-05
0.35925,1.8551373240552918e-05
0.3595,1.1513581892827334e-05
0.35975,3.2506801553992623e-06
0.36,-4.33291687402481e-06
0.36025,-9.447726434535568e-06
0.3605,-1.09113178832962e-05
0.36075,-8.266733936923026e-06
0.361,-2.103870667775241e-06
0.36125,6.171727742463817e-06
0.3615,1.477236309423954e-05
0.36175,2.1678549498860613e-05
0.362,2.5354820386316208e-05
0.36225,2.4961482696255122e-05
0.3625,2.0724544268274577e-05
0.36275,1.375525695754869e-05
0.363,5.938013542571367e-06
0.36325,-6.801321183248174e-07
0.3635,-4.316964213399177e-06
0.36375,-3.9045592588420304e-06
0.364,6.357717565824285e-07
0.36425,8.342220744839932e-06
0.3645,1.7674628998380833e-05
0.36475,2.6749355560222274e-05
0.365,3.391835505814271e-05
0.36525,3.820262849089172e-05
0.3655,3.941253263934097e-05
0.36575,3.812411109301607e-05
0.366,3.570185107557189e-05
0.36625,3.3583802836309186e-05
0.3665,3.3378657156881685e-05
0.36675,3.598851794844945e-05
0.367,4.198913495167607e-05
0.36725,5.15676639438017e-05
0.3675,6.33352229676128e-05
0.36775,7.672081568448297e-05
0.368,9.024583681478405e-05
0.36825,0.00010264603050334005
0.3685,0.00011218085815544731
0.36875,0.000118350065768528
0.369,0.0001212284657514199
0.36925,0.0001206123126617035
0.3695,0.0001182581423254242
0.36975,0.0001152121504652971
0.37,0.00011322981524496752
0.37025,0.00011338192179337224
0.3705,0.00011636054094454892
0.37075,0.00012117106412389393
0.371,0.00012625515817061517
0.37125,0.00012964464898653722
0.3715,0.00012992500732881328
0.37175,0.00012552040069608038
0.372,0.0001164153517350275
0.37225,0.00010333565605068044
0.3725,8.840225325216022e-05
0.37275,7.361797210081155e-05
0.373,6.100814616380798e-05
0.37325,5.229719328694018e-05
0.3735,4.79218584926411e-05
0.37375,4.650300806853355e-05
0.374,4.6857924977529835e-05
0.37425,4.738013232160882e-05
0.3745,4.6320174897270654e-05
0.37475,4.334002168896636e-05
0.375,3.8219680484953814e-05
0.37525,3.173100898095815e-05
0.3755,2.4760056423828344e-05
0.37575,1.8341580525031166e-05
0.376,1.2917674993810942e-05
0.37625,8.732231773741267e-06
0.3765,5.381782239379052e-06
0.37675,2.5943556109091414e-06
0.377,-2.4735323393143875e-07
0.37725,-3.669233850183011e-06
0.3775,-8.37679986322034e-06
0.37775,-1.4455688641929316e-05
0.378,-2.212183699214111e-05
0.37825,-3.063926940565346e-05
0.3785,-3.9172124458528136e-05
0.37875,-4.505050326702351e-05
0.379,-4.528147632167898e-05
0.37925,-3.572537968760976e-05
0.3795,-1.1729062345317925e-05
0.37975,3.0311572292396705e-05
0.38,9.059863789898202e-05
0.38025,0.00016728032776466863
0.3805,0.00025497558030584185
0.38075,0.0003445845979951848
0.381,0.00041937560572571784
0.38125,0.0004660724196193648
0.3815,0.0004800906188632266
0.38175,0.00045516556357718237
0.382,0.000395125296808886
0.38225,0.0003120468489620793
0.3825,0.00021898821725453748
0.38275,0.00012726812434748404
0.383,4.682240487739048e-05
0.38325,-1.7404838113408195e-05
0.3835,-6.314588593258999e-05
0.38375,-9.169886335029339e-05
0.384,-0.0001043813846134335
0.38425,-0.00010476272941115127
0.3845,-9.757840382367493e-05
0.38475,-8.581544054319812e-05
0.385,-7.164469874099624e-05
0.38525,-5.667213631841927e-05
0.3855,-4.273818487506683e-05
0.38575,-3.096389431222711e-05
0.386,-2.2048026781242222e-05
0.38625,-1.636557890889158e-05
0.3865,-1.2589871583605914e-05
0.38675,-9.447993542382394e-06
0.387,-6.060366644471317e-06
0.38725,-1.8271965045477466e-06
0.3875,3.3724097242357282e-06
0.38775,8.93144295912813e-06
0.388,1.3825657152498026e-05
0.38825,1.6811966556729834e-05
0.3885,1.7155072366642576e-05
0.38875,1.4779268575632368e-05
0.389,1.072717500184126e-05
0.38925,6.70022205690807e-06
0.3895,4.702252244627216e-06
0.38975,6.21418456617834e-06
0.39,1.1874391024137195e-05
0.39025,2.1020540587047232e-05
0.3905,3.202400115981867e-05
0.39075,4.274711389753141e-05
0.391,5.133340823562381e-05
0.39125,5.659753696112274e-05
0.3915,5.8759761222431326e-05
0.39175,5.914839657502421e-05
0.392,5.9110067525544355e-05
0.39225,6.0760135505963405e-05
0.3925,6.536995405534547e-05
0.39275,7.230306059559526e-05
0.393,8.189828833201037e-05
0.39325,9.239150827230298e-05
0.3935,0.00010318237506884533
0.39375,0.00011268701938498246
0.394,0.00012106868660811153
0.39425,0.00012836068720162828
0.3945,0.00013482498088438077
0.39475,0.00014111300640802028
0.395,0.00014684112560889756
0.39525,0.00015249036692767734
0.3955,0.00015721416886937877
0.39575,0.00016060184348019489
0.396,0.00016328540947814797
0.39625,0.0001651858626834871
0.3965,0.0001672358940384108
0.39675,0.00016987490224115013
0.397,0.00017418977915026977
0.39725,0.0001791316047633626
0.3975,0.00018429405266427
0.39775,0.00018800849132314954
0.398,0.00018917628416546153
0.39825,0.00018685931815213045
0.3985,0.0001809757547439382
0.39875,0.00017252786937606916
0.399,0.00016253083628688314
0.39925,0.00015372180026871843
0.3995,0.00014635501078396246
0.39975,0.0001414340357565147
0.4,0.0001382391674169955
0.40025,0.00013694421191873553
0.4005,0.00013483110638089836
0.40075,0.00013169781828292315
0.401,0.00012586110258230174
0.40125,0.00011752299192461191
0.4015,0.00010718222710787971
0.40175,9.559672570437684e-05
0.402,8.435187925532245e-05
0.40225,7.358845085680987e-05
0.4025,6.465854455628944e-05
0.40275,5.7245560775821725e-05
0.403,5.146324659444072e-05
0.40325,4.705108684197979e-05
0.4035,4.361974865674899e-05
0.40375,4.058034244458556e-05
0.404,3.7605125705299655e-05
0.40425,3.442299177579353e-05
0.4045,3.0768474722864305e-05
0.40475,2.6318961787789027e-05
0.405,2.102507054496687e-05
0.40525,1.4985069395549782e-05
0.4055,8.513668127710565e-06
0.40575,2.2456748317527982e-06
0.406,-3.1283310972248727e-06
0.40625,-6.9125664112780546e-06
0.4065,-8.677448514268477e-06
0.40675,-8.385102708942048e-06
0.407,-6.4512055850298905e-06
0.40725,-3.633641292958054e-06
0.4075,-9.706923962028723e-07
0.40775,5.504652085713233e-07
0.408,1.7916932586341104e-07
0.40825,-2.312442212867531e-06
0.4085,-6.6806089652015035e-06
0.40875,-1.2144860258767458e-05
0.409,-1.7622016110642227e-05
0.40925,-2.1934797470360307e-05
0.4095,-2.4098932019277716e-05
0.40975,-2.3718948158402133e-05
0.41,-2.081708796736491e-05
0.41025,-1.6164967705213728e-05
0.4105,-1.0949557174215467e-05
0.41075,-6.534034364174018e-06
0.411,-4.027431055581088e-06
0.41125,-4.212495368925568e-06
0.4115,-7.0615033208012e-06
0.41175,-1.1954953790027523e-05
0.412,-1.7671972577733743e-05
0.41225,-2.2826698510267146e-05
0.4125,-2.6203173210707922e-05
0.41275,-2.7012242041957777e-05
0.413,-2.5186267688544063e-05
0.41325,-2.1339099303385363e-05
0.4135,-1.6520215929709122e-05
0.41375,-1.191589887814643e-05
0.414,-8.605731327967104e-06
0.41425,-7.220044782576661e-06
0.4145,-7.820086977969306e-06
0.41475,-1.0141202737497131e-05
0.415,-1.3493794594455024e-05
0.41525,-1.7221840624499412e-05
0.4155,-2.0602098950082903e-05
0.41575,-2.3205367272280983e-05
0.416,-2.4684665184270464e-05
0.41625,-2.486485776185535e-05
0.4165,-2.3586689206025588e-05
0.41675,-2.0893814045125346e-05
0.417,-1.7053757665501777e-05
0.41725,-1.2632094385910224e-05
0.4175,-8.435224001597325e-06
0.41775,-5.526909180911854e-06
0.418,-4.69716114918871e-06
0.41825,-6.588712770832277e-06
0.4185,-1.0954779436245027e-05
0.41875,-1.6949935630768896e-05
0.419,-2.2958966648409086e-05
0.41925,-2.7174805166849488e-05
0.4195,-2.8082114879227306e-05
0.41975,-2.49341311555862e-05
0.42,-1.813221692225511e-05
0.42025,-9.066083606964614e-06
0.4205,2.4778166781386734e-07
0.42075,7.712469644432934e-06
0.421,1.1834164345122659e-05
0.42125,1.2204524845681617e-05
0.4215,9.697847812419565e-06
0.42175,5.990212044024609e-06
0.422,3.306226986213636e-06
0.42225,3.4076789630255766e-06
0.4225,7.4569901983431815e-06
0.42275,1.5478549376906614e-05
0.423,2.660807360684407e-05
0.42325,3.9548106841305885e-05
0.4235,5.2284703829806634e-05
0.42375,6.337187821735699e-05
0.424,7.25980034340899e-05
0.42425,7.956343741588654e-05
0.4245,8.475009498344393e-05
0.42475,8.827906011055683e-05
0.425,9.080551369718075e-05
0.42525,9.231302877875467e-05
0.4255,9.240820762444025e-05
0.42575,9.218225706670129e-05
0.426,9.143347783356447e-05
0.42625,9.11995675877782e-05
0.4265,9.221699763672846e-05
0.42675,9.420271039209276e-05
0.427,9.68834120449789e-05
0.42725,9.881382565989435e-05
0.4275,9.847853410124823e-05
0.42775,9.426836999922688e-05
0.428,8.586215085568501e-05
0.42825,7.310250506045761e-05
0.4285,5.774976702762258e-05
0.42875,4.153653165786807e-05
0.429,2.7349817200775933e-05
0.42925,1.7574538821489764e-05
0.4295,1.275663823064024e-05
0.42975,1.2492274868808602e-05
0.43,1.5247276486742569e-05
0.43025,1.8441578079100615e-05
0.4305,1.9823705618438208e-05
0.43075,1.775030250417577e-05
0.431,1.1924994339609263e-05
0.43125,3.0947661687422275e-06
0.4315,-6.782511123893437e-06
0.43175,-1.6020090988744512e-05
0.432,-2.309496656021751e-05
0.43225,-2.7527711882884614e-05
0.4325,-2.9455306969700623e-05
0.43275,-2.9938314284778324e-05
0.433,-3.019294917480718e-05
0.43325,-3.153903596543239e-05
0.4335,-3.492133323590392e-05
0.43375,-4.117848074476259e-05
0.434,-5.068657601907323e-05
0.43425,-6.22116442596701e-05
0.4345,-7.261416160071754e-05
0.43475,-7.970240302332466e-05
0.435,-8.067645125233704e-05
0.43525,-7.232649807222136e-05
0.4355,-5.150525333509015e-05
0.43575,-1.5357868394561557e-05
0.436,4.017035851950708e-05
0.43625,0.00011313813832674185
0.4365,0.00019785412365496465
0.43675,0.0002852754774594152
0.437,0.00036623565566090005
0.43725,0.00042795429630349295
0.4375,0.0004608087755898145
0.43775,0.0004522177213852553
0.438,0.0004039042813665783
0.43825,0.00032966195562649794
0.4385,0.0002398100142036276
0.43875,0.0001458368669541639
0.439,5.711608181657286e-05
0.43925,-1.5683501547265632e-05
0.4395,-6.805248914934672e-05
0.43975,-0.00010052687121835854
0.44,-0.00011630970120491554
0.44025,-0.00011878069614840094
0.4405,-0.00011176241663118922
0.44075,-9.864800840677054e-05
0.441,-8.45562227295853e-05
0.44125,-7.149266000493153e-05
0.4415,-6.057371825215451e-05
0.44175,-5.230152791089047e-05
0.442,-4.599176842991989e-05
0.44225,-4.110227307527707e-05
0.4425,-3.7039986359135464e-05
0.44275,-3.241064389858295e-05
0.443,-2.65372321220856e-05
0.44325,-1.9558378806003005e-05
0.4435,-1.2393615174143224e-05
0.44375,-5.853336113076843e-06
0.444,-1.2007009769160699e-06
0.44425,7.497501607125467e-07
0.4445,-5.527108543061594e-07
0.44475,-4.570086500590762e-06
0.445,-1.0291857015947807e-05
0.44525,-1.5749560594753636e-05
0.4455,-1.904904006423113e-05
0.44575,-1.8466169406594935e-05
0.446,-1.3350502497094345e-05
0.44625,-4.0057487132163e-06
0.4465,8.075836834965264e-06
0.44675,2.090371554521495e-05
0.447,3.22173497197107e-05
0.44725,4.042047241566059e-05
0.4475,4.473077230028179e-05
0.44775,4.561416627806784e-05
0.448,4.4069877870750066e-05
0.44825,4.215712237475495e-05
0.4485,4.171588099436099e-05
0.44875,4.430414175297433e-05
0.449,5.0388486217033465e-05
0.44925,5.977194291615515e-05
0.4495,7.227735952853822e-05
0.44975,8.619729173535975e-05
0.45,0.00010040932831615135
0.45025,0.00011362310225128175
0.4505,0.00012381992785279438
0.45075,0.00013128802527710335
0.451,0.00013472322394633858
0.45125,0.00013524767325765033
0.4515,0.00013362396155973047
0.45175,0.00013104219860233428
0.452,0.00012868036329299033
0.45225,0.00012919555129872366
0.4525,0.00013252843489388677
0.45275,0.00013924564216163677
0.453,0.00014820363414016347
0.45325,0.0001578977129687872
0.4535,0.00016655742278057833
0.45375,0.00017118635425703645
0.454,0.00017120963145547837
0.45425,0.00016574720332310927
0.4545,0.00015540117787092464
0.45475,0.00014235902550433332
0.455,0.00012835809144588818
0.45525,0.00011667678412762353
0.4555,0.00010782165761543476
0.45575,0.00010295265676718487
0.456,0.0001019038767326367
0.45625,0.00010279126131867366
0.4565,0.00010436270267362109
0.45675,0.00010440811688978304
0.457,0.00010119965827424832
0.45725,9.455715582924395e-05
0.4575,8.448101049258413e-05
0.45775,7.092515790894268e-05
0.458,5.5722343761515584e-05
0.45825,4.07829990658411e-05
0.4585,2.7057441658447484e-05
0.45875,1.6146602692224758e-05
0.459,9.135643475968139e-06
0.45925,6.165766397031414e-06
0.4595,6.71549541051823e-06
0.45975,9.54231220517848e-06
0.46,1.2928781796017945e-05
0.46025,1.4884891316544907e-05
0.4605,1.3794462027004197e-05
0.46075,8.614786092865278e-06
0.461,-5.238536269232992e-07
0.46125,-1.2551382011362832e-05
0.4615,-2.5540221912417535e-05
0.46175,-3.7027936407951833e-05
0.462,-4.4903233503110206e-05
0.46225,-4.774067378526159e-05
0.4625,-4.5324101107329454e-05
0.46275,-3.8716620772555416e-05
0.463,-2.983884146236209e-05
0.46325,-2.1310435216869502e-05
0.4635,-1.5438958246758042e-05
0.46375,-1.3882382401047175e-05
0.464,-1.7156515699829174e-05
0.46425,-2.4584463292372324e-05
0.4645,-3.4544615103891426e-05
0.46475,-4.472416443602258e-05
0.465,-5.2961477380730164e-05
0.46525,-5.755010001402477e-05
0.4655,-5.7622893134473244e-05
0.46575,-5.3373839148303096e-05
0.466,-4.585587706375077e-05
0.46625,-3.680557302399676e-05
0.4665,-2.823500271539957e-05
0.46675,-2.196644990449987e-05
0.467,-1.932273847854664e-05
0.46725,-2.0852240226466662e-05
0.4675,-2.6220126344726236e-05
0.46775,-3.434628568385528e-05
0.468,-4.344681153964522e-05
0.46825,-5.160285404209566e-05
0.4685,-5.701816942629886e-05
0.46875,-5.8412485273707024e-05
0.469,-5.537307953890568e-05
0.46925,-4.852360800644859e-05
0.4695,-3.923226648444013e-05
0.46975,-2.949917975507009e-05
0.47,-2.1583176511857187e-05
0.47025,-1.7329048814678156e-05
0.4705,-1.772651626987773e-05
0.47075,-2.280414118697638e-05
0.471,-3.1465745762757474e-05
0.47125,-4.1730747785552625e-05
0.4715,-5.120002812866324e-05
0.47175,-5.756701487811205e-05
0.472,-5.925662567413787e-05
0.47225,-5.578726110186346e-05
0.4725,-4.7828406158037375e-05
0.47275,-3.716935989736479e-05
0.473,-2.6293159665112678e-05
0.47325,-1.776313316825557e-05
0.4735,-1.35234770933769e-05
0.47375,-1.4547050047764088e-05
0.474,-2.0470763613576707e-05
0.47425,-2.981645125677231e-05
0.4745,-4.01686826800945e-05
0.47475,-4.89349018547565e-05
0.475,-5.385979920219583e-05
0.47525,-5.3624078304338755e-05
0.4755,-4.81263023472143e-05
0.47575,-3.85102578576924e-05
0.476,-2.6787351307624138e-05
0.47625,-1.5245014126262348e-05
0.4765,-6.132758042127041e-06
0.47675,-7.494453512315525e-07
0.477,4.6749428964585723e-07
0.47725,-1.7503460867319528e-06
0.4775,-5.938098594407688e-06
0.47775,-1.010148511281916e-05
0.478,-1.2382614095295971e-05
0.47825,-1.1273482865460163e-05
0.4785,-5.923235357614717e-06
0.47875,3.6593549179601185e-06
0.479,1.6783873284699584e-05
0.47925,3.210088614452246e-05
0.4795,4.7841590256935375e-05
0.47975,6.217434574627527e-05
0.48,7.314007296490686e-05
0.48025,8.028626513130483e-05
0.4805,8.234732835197858e-05
0.48075,7.980877581327387e-05
0.481,7.455098906953338e-05
0.48125,6.77533569184254e-05
0.4815,6.1869403955313e-05
0.48175,5.900379975720682e-05
0.482,6.006231701619804e-05
0.48225,6.496737956884649e-05
0.4825,7.172432775396041e-05
0.48275,7.836027929728504e-05
0.483,8.238633921058541e-05
0.48325,8.076833053826871e-05
0.4835,7.281107836282936e-05
0.48375,5.898148427994879e-05
0.484,4.092690858658391e-05
0.48425,2.179482211789879e-05
0.4845,4.680236963558853e-06
0.48475,-7.812826269837879e-06
0.485,-1.450495295875848e-05
0.48525,-1.550959509730885e-05
0.4855,-1.2555442554541047e-05
0.48575,-7.985025319111081e-06
0.486,-4.366973240201696e-06
0.48625,-3.5175966208636526e-06
0.4865,-6.384514689577459e-06
0.48675,-1.2583976037493115e-05
0.487,-2.1176887142834446e-05
0.48725,-3.0452415562967778e-05
0.4875,-3.9139510911419284e-05
0.48775,-4.6338293799813026e-05
0.488,-5.224804566080109e-05
0.48825,-5.628215210323448e-05
0.4885,-5.969896660675253e-05
0.48875,-6.230916534013622e-05
0.489,-6.505900416436325e-05
0.48925,-6.913971754838746e-05
0.4895,-7.537148798000479e-05
0.48975,-8.297209371658563e-05
0.49,-8.956746093206769e-05
0.49025,-9.236948156026025e-05
0.4905,-8.891753229328015e-05
0.49075,-7.647125338394847e-05
0.491,-5.07548402333089e-05
0.49125,-8.783515053947123e-06
0.4915,5.119394126192165e-05
0.49175,0.00013264551384700713
0.492,0.00022647889738251122
0.49225,0.00031552990712032075
0.4925,0.000386984455524592
0.49275,0.0004282087441441834
0.493,0.000434822124266161
0.49325,0.00040430449555900423
0.4935,0.0003389188552749247
0.49375,0.00024947072965692544
0.494,0.00015188853204421116
0.49425,5.913747246521204e-05
0.4945,-1.9588194061330586e-05
0.49475,-7.888155377193841e-05
0.495,-0.00011646108934192441
0.49525,-0.00013407396194200068
0.4955,-0.000135208513314902
0.49575,-0.0001253226310365373
0.496,-0.00011050282445187738
0.49625,-9.460684459828964e-05
0.4965,-7.914634393131796e-05
0.49675,-6.604175926074882e-05
0.497,-5.600331364518301e-05
0.49725,-4.86423879356182e-05
0.4975,-4.4198697990916136e-05
0.49775,-4.168359971948426e-05
0.498,-3.930248089051378e-05
0.49825,-3.6319689260025265e-05
0.4985,-3.24426140449141e-05
0.49875,-2.7443032955340904e-05
0.499,-2.1469526664754696e-05
0.49925,-1.5316769521937562e-05
0.4995,-1.0126516201500169e-05
0.49975,-7.0153533396936785e-06
0.5,-6.844702401120844e-06
0.50025,-9.486067772292724e-06
0.5005,-1.3811495658886634e-05
0.50075,-1.796375286889445e-05
0.501,-1.9837105441151778e-05
0.50125,-1.7771658184567666e-05
0.5015,-1.1176017929558706e-05
0.50175,-7.685076354448162e-07
0.502,1.1720941548126401e-05
0.50225,2.3826740919420196e-05
0.5025,3.349438720942821e-05
0.50275,3.9390250629162e-05
0.503,4.1639968525953826e-05
0.50325,4.1373456464626736e-05
0.5035,4.0898715516395e-05
0.50375,4.17824612080107e-05
0.504,4.627917950713502e-05
0.50425,5.408357179278968e-05
0.5045,6.473027800224835e-05
0.50475,7.754621283967167e-05
0.505,8.987107171136961e-05
0.50525,0.00010054031546735903
0.5055,0.00010898466561310593
0.50575,0.00011575730549282565
0.506,0.00012028503699073062
0.50625,0.00012420609344602042
0.5065,0.00012744401593236182
0.50675,0.00013065103281511504
0.507,0.0001336087754581839
0.50725,0.00013661951390521598
0.5075,0.00013939200434158247
0.50775,0.0001423544550296536
0.508,0.00014514346301424533
0.50825,0.0001478342643512886
0.5085,0.00015092507841927248
0.50875,0.00015321861924249191
0.509,0.00015364277531693192
0.50925,0.00015228825867538728
0.5095,0.00014810912133548075
0.50975,0.00014116160634510352
0.51,0.00013276666715766514
0.51025,0.00012360995628555953
0.5105,0.0001151729942414569
0.51075,0.00010850090731253268
0.511,0.00010368510127376477
0.51125,0.00010066787375863161
0.5115,9.802040937861303e-05
0.51175,9.428985829946602e-05
0.512,8.868705826110334e-05
0.51225,8.088634738352135e-05
0.5125,7.08821491869713e-05
0.51275,6.017124517270372e-05
0.513,4.902443384708377e-05
0.51325,3.959128883537753e-05
0.5135,3.1871961481544054e-05
0.51375,2.6106946694888576e-05
0.514,2.2210056666597906e-05
0.51425,1.90936704777662e-05
0.5145,1.6191187102975082e-05
0.51475,1.2715129283210564e-05
0.515,8.567177900909376e-06
0.51525,3.609915272151258e-06
0.5155,-1.7641857414830318e-06
0.51575,-7.3778600848128075e-06
0.516,-1.2693854048324701e-05
0.51625,-1.7451932506019006e-05
0.5165,-2.1312363691605134e-05
0.51675,-2.4061902057808982e-05
0.517,-2.5435949729324664e-05
0.51725,-2.5579578670551713e-05
0.5175,-2.459662886851154e-05
0.51775,-2.3198979488429828e-05
0.518,-2.1974052534491118e-05
0.51825,-2.1723882695830412e-05
0.5185,-2.2924079861776317e-05
0.51875,-2.573383016562382e-05
0.519,-2.9579073570053515e-05
0.51925,-3.362121143512052e-05
0.5195,-3.670822431628241e-05
0.51975,-3.799442453576207e-05
0.52,-3.700541342522114e-05
0.52025,-3.402223823281547e-05
0.5205,-2.9877208610190986e-05
0.52075,-2.5838891022984594e-05
0.521,-2.2964031786175985e-05
0.52125,-2.2121441296805973e-05
0.5215,-2.336011465552154e-05
0.52175,-2.6185213501565014e-05
0.522,-2.964363733971903e-05
0.52225,-3.2713562112294784e-05
0.5225,-3.4500111861293095e-05
0.52275,-3.476313152852031e-05
0.523,-3.34266662948814e-05
0.52325,-3.10376192906763e-05
0.5235,-2.8085399511002266e-05
0.52375,-2.5112194278669405e-05
0.524,-2.2509868880860192e-05
0.52425,-2.049116767861964e-05
0.5245,-1.9312175929102477e-05
0.52475,-1.9110520781452794e-05
0.525,-2.006995083241165e-05
0.52525,-2.217700671468589e-05
0.5255,-2.5177399134163572e-05
0.52575,-2.8447354095441472e-05
0.526,-3.100921693683338e-05
0.52625,-3.198816327510355e-05
0.5265,-3.052095923506271e-05
0.52675,-2.6565025493104336e-05
0.527,-2.0736341618536698e-05
0.52725,-1.450272436669516e-05
0.5275,-9.427723185372365e-06
0.52775,-7.157928910167171e-06
0.528,-8.457595419252731e-06
0.52825,-1.3047349939940141e-05
0.5285,-1.9628851270102073e-05
0.52875,-2.610825782747206e-05
0.529,-3.0378868080562497e-05
0.52925,-3.096957006023991e-05
0.5295,-2.747254588541868e-05
0.52975,-2.074672595112681e-05
0.53,-1.241004915589916e-05
0.53025,-4.507885960771048e-06
0.5305,1.2940118366383517e-06
0.53075,4.124649560745032e-06
0.531,4.235185222025484e-06
0.53125,2.6227692541894476e-06
0.5315,8.127725408788128e-07
0.53175,1.76677628300543e-07
0.532,1.6052005218184858e-06
0.53225,5.483715792180172e-06
0.5325,1.1561307572028237e-05
0.53275,1.9426362918937195e-05
0.533,2.86667968246629e-05
0.53325,3.86377275793701e-05
0.5335,4.933779611741558e-05
0.53375,6.004649672715347e-05
0.534,7.027693720022012e-05
0.53425,7.897488897184676e-05
0.5345,8.528921856246011e-05
0.53475,8.884724725902124e-05
0.535,8.905089009960896e-05
0.53525,8.697982278979929e-05
0.5355,8.454727763151839e-05
0.53575,8.274223953654326e-05
0.536,8.33738358553384e-05
0.53625,8.711751565406895e-05
0.5365,9.28462894167471e-05
0.53675,9.888857951646394e-05
0.537,0.00010283159611462422
0.53725,0.00010237890009987014
0.5375,9.673040509219723e-05
0.53775,8.495028758634153e-05
0.538,6.956466632333349e-05
0.53825,5.3022882784734996e-05
0.5385,3.7819288663836315e-05
0.53875,2.6922140842715546e-05
0.539,2.117567709785598e-05
0.53925,1.99414238211138e-05
0.5395,2.1615282987666932e-05
0.53975,2.3964220295277472e-05
0.54,2.504457823091134e-05
0.54025,2.3626425301890684e-05
0.5405,1.9598958674719556e-05
0.54075,1.3515601938095553e-05
0.541,6.472852103190847e-06
0.54125,-5.180635126217935e-07
0.5415,-6.684022203646857e-06
0.54175,-1.1804304046674747e-05
0.542,-1.588398153279885e-05
0.54225,-1.9243844561098704e-05
0.5425,-2.2003014657428926e-05
0.54275,-2.462806515892707e-05
0.543,-2.7556642494750994e-05
0.54325,-3.14364222826017e-05
0.5435,-3.6519593889424686e-05
0.54375,-4.321174067741143e-05
0.544,-5.098949187454681e-05
0.54425,-5.797563194798144e-05
0.5445,-6.098900789550382e-05
0.54475,-5.6376054608390276e-05
0.545,-3.831635593903221e-05
0.54525,-2.025109640814427e-06
0.5455,5.476863477350685e-05
0.54575,0.00013005282300132203
0.546,0.0002179295459791727
0.54625,0.0003088969084032726
0.5465,0.00038962727651177954
0.54675,0.0004432669251604155
0.547,0.00046236700683831256
0.54725,0.00044161050094343023
0.5475,0.0003811681926281114
0.54775,0.0002949075613196206
0.548,0.00019795956348630877
0.54825,0.0001038385582590833
0.5485,2.2103378084025223e-05
0.54875,-4.188123853814977e-05
0.549,-8.520656793691367e-05
0.54925,-0.00010936730574575963
0.5495,-0.00011611176873038679
0.54975,-0.00011069656993035416
0.55,-9.738101080830501e-05
0.55025,-8.026920295601515e-05
0.5505,-6.352042760600955e-05
0.55075,-4.897996125652137e-05
0.551,-3.87692968455075e-05
0.55125,-3.245453819272116e-05
0.5515,-2.964158842206629e-05
0.55175,-2.8495335590942247e-05
0.552,-2.703984303364093e-05
0.55225,-2.395580563182549e-05
0.5525,-1.8329046706310582e-05
0.55275,-1.0294090224703077e-05
0.553,-8.180895494071425e-07
0.55325,8.272182919937992e-06
0.5535,1.4975302690330022e-05
0.55375,1.7715669802360605e-05
0.554,1.5931042877676565e-05
0.55425,1.0304245271305712e-05
0.5545,2.9143948347357867e-06
0.55475,-3.4681326728525173e-06
0.555,-6.230726655305926e-06
0.55525,-3.6988284529772714e-06
0.5555,4.366342843269835e-06
0.55575,1.6779048648158828e-05
0.556,3.12246861604216e-05
0.55625,4.504125321487722e-05
0.5565,5.584865496897452e-05
0.55675,6.279651902014945e-05
0.557,6.538449177592875e-05
0.55725,6.49187006950435e-05
0.5575,6.356541381723595e-05
0.55775,6.264240566724929e-05
0.558,6.472563446909455e-05
0.55825,6.9490647926207e-05
0.5585,7.812858162991244e-05
0.55875,8.926728544446857e-05
0.559,0.00010203957879709133
0.55925,0.00011567802947474187
0.5595,0.0001285254915192635
0.55975,0.0001400181927940383
0.56,0.00014938060079279164
0.56025,0.0001553670359089085
0.5605,0.00015802054318698298
0.56075,0.00015798999172099732
0.561,0.00015607756857416116
0.56125,0.00015400951061398123
0.5615,0.00015248474826565992
0.56175,0.00015371685401555004
0.562,0.00015812910028247505
0.56225,0.00016545310978193116
0.5625,0.00017440322747513276
0.56275,0.0001830689159258631
0.563,0.0001887524534304515
0.56325,0.00019005943110185668
0.5635,0.0001856967303730874
0.56375,0.0001767050239610991
0.564,0.00016429843229731896
0.56425,0.00015049211466068357
0.5645,0.0001379643424121617
0.56475,0.00012851489530352862
0.565,0.00012284272308259127
0.56525,0.00012110917995912328
0.5655,0.00012123123599714647
0.56575,0.00012240168020798877
0.566,0.00012227317355577294
0.56625,0.00011900732812720335
0.5665,0.00011277980126378518
0.56675,0.00010319826891669516
0.567,9.098152976810407e-05
0.56725,7.767976446587319e-05
0.5675,6.452780101899351e-05
0.56775,5.262582961791023e-05
0.568,4.4022025067567914e-05
0.56825,3.8061084845724495e-05
0.5685,3.568866654397038e-05
0.56875,3.61344044627748e-05
0.569,3.7632405721811475e-05
0.56925,3.9316252862877244e-05
0.5695,3.957054536205084e-05
0.56975,3.735516347339836e-05
0.57,3.2198599496877995e-05
0.57025,2.443679579259518e-05
0.5705,1.509579090625304e-05
0.57075,5.79841418675377e-06
0.571,-1.804608616716595e-06
0.57125,-6.370040808780839e-06
0.5715,-7.202898697628541e-06
0.57175,-4.555098626427358e-06
0.572,5.41040312256056e-07
0.57225,6.5123648062861465e-06
0.5725,1.1692898643648726e-05
0.57275,1.4671119661147098e-05
0.573,1.4689368299402314e-05
0.57325,1.172629618572635e-05
0.5735,6.50629782911121e-06
0.57375,2.25043857100891e-07
0.574,-5.691871079102802e-06
0.57425,-9.963217433150687e-06
0.5745,-1.166315633162379e-05
0.57475,-1.044236154134311e-05
0.575,-6.536720592707092e-06
0.57525,-7.700191218663575e-07
0.5755,5.648671361471482e-06
0.57575,1.1326849640720231e-05
0.576,1.5003188796795789e-05
0.57625,1.5802008207769302e-05
0.5765,1.352300396120222e-05
0.57675,8.68593643297155e-06
0.577,2.494562762870483e-06
0.57725,-3.416535919423579e-06
0.5775,-7.422376868449948e-06
0.57775,-8.346482603440654e-06
0.578,-5.75885963281997e-06
0.57825,-2.0970642543815494e-07
0.5785,6.965185142609352e-06
0.57875,1.3930530693490111e-05
0.579,1.8945048440497452e-05
0.57925,2.074506595306774e-05
0.5795,1.9070980808873625e-05
0.57975,1.4573556131961548e-05
0.58,8.624377910209249e-06
0.58025,2.9988459104937413e-06
0.5805,-8.226398490851783e-07
0.58075,-1.910500677389894e-06
0.581,-5.596780586391976e-08
0.58125,4.021768662236156e-06
0.5815,9.262226503261841e-06
0.58175,1.443612402557531e-05
0.582,1.8465818026358186e-05
0.58225,2.069652058617748e-05
0.5825,2.097246864879275e-05
0.58275,1.9427573085653577e-05
0.583,1.6659274248296223e-05
0.58325,1.3209544445809039e-05
0.5835,9.90927567921479e-06
0.58375,7.498539019087033e-06
0.584,6.640239469153878e-06
0.58425,7.873239221754672e-06
0.5845,1.145773669591914e-05
0.58475,1.716315174873402e-05
0.585,2.432433110791677e-05
0.58525,3.179044039104762e-05
0.5855,3.8301046304074505e-05
0.58575,4.266873607585501e-05
0.586,4.443375303125772e-05
0.58625,4.3906172909101475e-05
0.5865,4.2348159561029145e-05
0.58675,4.124343932334063e-05
0.587,4.2909060856700415e-05
0.58725,4.8426971626527364e-05
0.5875,5.824330319992991e-05
0.58775,7.172388423886986e-05
0.588,8.681404047088353e-05
0.58825,0.00010129150673694696
0.5885,0.00011277920531760536
0.58875,0.00011991567496179569
0.589,0.0001226836479454037
0.58925,0.00012169088850170347
0.5895,0.00011888785829111375
0.58975,0.00011594979619635968
0.59,0.00011504060856130302
0.59025,0.000116270400224568
0.5905,0.00011973514930679711
0.59075,0.00012446164988108907
0.591,0.00012797836256544568
0.59125,0.0001297042890425702
0.5915,0.00012820004178263613
0.59175,0.000122614000882722
0.592,0.0001143652752973356
0.59225,0.00010327981930542277
0.5925,9.111300278426504e-05
0.59275,7.856457047150882e-05
0.593,6.736070637978064e-05
0.59325,5.7943976538915924e-05
0.5935,5.108867083413928e-05
0.59375,4.697009439960747e-05
0.594,4.5263298704380536e-05
0.59425,4.525234583023471e-05
0.5945,4.624879387842551e-05
0.59475,4.6625810169742276e-05
0.595,4.5390844546242345e-05
0.59525,4.222248547199835e-05
0.5955,3.696115062751787e-05
0.59575,2.943420986097993e-05
0.596,2.0325465544958926e-05
0.59625,1.1035634132258326e-05
0.5965,3.010406335790848e-06
0.59675,-2.5955092845970775e-06
0.597,-5.502833759426611e-06
0.59725,-6.377699355746051e-06
0.5975,-6.7317395138640955e-06
0.59775,-8.39842752407504e-06
0.598,-1.3087167837098012e-05
0.59825,-2.133305134614487e-05
0.5985,-3.303903706139518e-05
0.59875,-4.4057838284798214e-05
0.599,-4.692196240688096e-05
0.59925,-3.586183485675783e-05
0.5995,-6.5060746362212655e-06
0.59975,4.311615406951188e-05
0.6,0.00011178444025727982
0.60025,0.00019571331220059307
0.6005,0.0002879069916963295
0.60075,0.0003773411031548626
0.601,0.0004490291566228499
0.60125,0.00048589714771944063
0.6015,0.000486138872856506
0.60175,0.0004464865333003792
0.602,0.00037259202799670856
0.60225,0.0002806949679540956
0.6025,0.0001833507957950561
0.60275,9.224290046452669e-05
0.603,1.6614796518722304e-05
0.60325,-3.871639168865862e-05
0.6035,-7.26631654109053e-05
0.60375,-8.753127999188322e-05
0.604,-8.774791820708183e-05
0.60425,-7.770043407184693e-05
0.6045,-6.427130910823331e-05
0.60475,-5.0889243431221666e-05
0.605,-4.0156523147840504e-05
0.60525,-3.246490396125579e-05
0.6055,-2.7486701974910092e-05
0.60575,-2.3897422851368834e-05
0.606,-2.019326106054294e-05
0.60625,-1.4525554336495286e-05
0.6065,-6.143964907866195e-06
0.60675,4.523088960230879e-06
0.607,1.6312811322754113e-05
0.60725,2.7710278828394056e-05
0.6075,3.704053511541151e-05
0.60775,4.2657326883153495e-05
0.608,4.346073179659797e-05
0.60825,3.9116127808837186e-05
0.6085,3.043786134126798e-05
0.60875,1.9454858124242465e-05
0.609,9.054058271958227e-06
0.60925,2.561389248871784e-06
0.6095,2.750667777118314e-06
0.60975,1.1037411757255028e-05
0.61,2.656080712714132e-05
0.61025,4.7162760464894845e-05
0.6105,6.805439155258605e-05
0.61075,8.491978263812943e-05
0.611,9.420378644168996e-05
0.61125,9.385648005907442e-05
0.6115,8.590684393441264e-05
0.61175,7.32179347034425e-05
0.612,6.133731588148141e-05
0.61225,5.4918254747875306e-05
0.6125,5.825519729060685e-05
0.61275,7.101028836084559e-05
0.613,9.229412752833032e-05
0.61325,0.00011690371423765229
0.6135,0.00014014180889889
0.61375,0.00015832693147074025
0.614,0.00016831965308479363
0.61425,0.00017062332904662652
0.6145,0.0001669714450499843
0.61475,0.00016098946200862098
0.615,0.0001555517603931385
0.61525,0.00015250427421142112
0.6155,0.00015362754151385222
0.61575,0.0001576335455487652
0.616,0.00016443400948217766
0.61625,0.00017335517668978144
0.6165,0.00018295228149944903
0.61675,0.00019362186543761997
0.617,0.00020385914598672024
0.61725,0.00021308389735401803
0.6175,0.00021848195387638242
0.61775,0.00021803949942487673
0.618,0.0002104854387954078
0.61825,0.00019491345004549036
0.6185,0.00017377064487062864
0.61875,0.00015167790093031355
0.619,0.0001334917202671599
0.61925,0.00012427896882603713
0.6195,0.00012601638733257913
0.61975,0.0001379133489675034
0.62,0.00015573103163013988
0.62025,0.00017168045720082221
0.6205,0.00017932787345308824
0.62075,0.00017377949700093223
0.621,0.00015359978260277417
0.62125,0.00012306493377506046
0.6215,8.827503424995314e-05
0.62175,5.806524116241386e-05
0.622,3.912834060479631e-05
0.62225,3.415787801368692e-05
0.6225,4.178383897603897e-05
0.62275,5.7671985341915344e-05
0.623,7.405142895134065e-05
0.62325,8.47879835813473e-05
0.6235,8.60059953306579e-05
0.62375,7.729152935571813e-05
0.624,6.143300604970916e-05
0.62425,4.285271864576758e-05
0.6245,2.5923255003295537e-05
0.62475,1.3424367416445325e-05
0.625,5.961791670148805e-06
0.62525,2.3167976289618193e-06
0.6255,7.93845011114326e-07
0.62575,2.4284623591780364e-07
0.626,8.194567973101816e-07
0.62625,3.628661938853798e-06
0.6265,9.864874165948496e-06
0.62675,1.9531428744986772e-05
0.627,3.058498877801366e-05
0.62725,3.942054600882324e-05
0.6275,4.164612261151989e-05
0.62775,3.4187878687545234e-05
0.628,1.6956273267511845e-05
0.62825,-6.621568338411271e-06
0.6285,-2.996809468245314e-05
0.62875,-4.5590010511328735e-05
0.629,-4.755885023473393e-05
0.62925,-3.398579196693826e-05
0.6295,-8.028711342072328e-06
0.62975,2.2745388130788e-05
0.63,4.8782624079946366e-05
0.63025,6.169548538655618e-05
0.6305,5.7218596794126135e-05
0.63075,3.670713135714681e-05
0.631,6.732677291130914e-06
0.63125,-2.3198006110756643e-05
0.6315,-4.387271418653257e-05
0.63175,-4.9496384720259924e-05
0.632,-3.940677923787374e-05
0.63225,-1.8008675358186233e-05
0.6325,7.1118263727832605e-06
0.63275,2.8087502060290257e-05
0.633,3.938815833937623e-05
0.63325,3.945349613429817e-05
0.6335,3.070514416175766e-05
0.63375,1.781653285964025e-05
0.634,5.838588016841102e-06
0.63425,-2.0870470693985206e-06
0.6345,-5.44645035489005e-06
0.63475,-5.872874741350596e-06
0.635,-5.878985207372434e-06
0.63525,-7.106614886628265e-06
0.6355,-9.252644203831513e-06
0.63575,-1.0065413618815331e-05
0.636,-6.642875600637329e-06
0.63625,2.7082930573899796e-06
0.6365,1.7344756158516145e-05
0.63675,3.3513719949994514e-05
0.637,4.5626855664470044e-05
0.63725,4.82496227256028e-05
0.6375,3.8542377077208906e-05
0.63775,1.779801692069425e-05
0.638,-8.326238738536945e-06
0.63825,-3.1457901077282106e-05
0.6385,-4.330862851438034e-05
0.63875,-3.8957515142971066e-05
0.639,-1.8513613657320556e-05
0.63925,1.1738020962110862e-05
