Time,Modified_Signal
0.0,0.0005012482305335807
0.00025,0.0005036888956197385
0.0005,0.00044247517053485155
0.00075,0.00032679533558762735
0.001,0.00017515428615136932
0.00125,1.6932998930443612e-05
0.0015,-0.00011910726491783372
0.00175,-0.00021101320559703296
0.002,-0.000247453146100905
0.00225,-0.00023020448239986918
0.0025,-0.00017306290179224185
0.00275,-9.903846512254879e-05
0.003,-3.085447263309836e-05
0.00325,1.4199899430966577e-05
0.0035,2.9380743719103873e-05
0.00375,1.7460264872905275e-05
0.004,-1.0547176647268877e-05
0.00425,-4.048632794517831e-05
0.0045,-6.032613552921182e-05
0.00475,-6.320309469052536e-05
0.005,-5.009089311067363e-05
0.00525,-2.7951254531241086e-05
0.0055,-6.001552274024335e-06
0.00575,7.92114798310148e-06
0.006,1.0063679794627546e-05
0.00625,1.7735838973539109e-06
0.0065,-1.1596917670240722e-05
0.00675,-2.3156777684464772e-05
0.007,-2.7156531622820827e-05
0.00725,-2.0952422371040478e-05
0.0075,-5.8236605578483406e-06
0.00775,1.3863051819111638e-05
0.008,3.2606163571702535e-05
0.00825,4.569195623765344e-05
0.0085,5.0851498105210234e-05
0.00875,4.863075316687026e-05
0.009,4.175081411008026e-05
0.00925,3.38352884000755e-05
0.0095,2.7938801593266905e-05
0.00975,2.5684581686072702e-05
0.01,2.763565643329051e-05
0.01025,3.2936010704874607e-05
0.0105,4.0789473988128164e-05
0.01075,5.062505217567329e-05
0.011,6.334576293067489e-05
0.01125,7.930204352756223e-05
0.0115,9.864638792226327e-05
0.01175,0.00012017888571309889
0.012,0.0001407681274613538
0.01225,0.00015707500449730784
0.0125,0.00016547040126020873
0.01275,0.0001631517312837352
0.013,0.0001514740044797026
0.01325,0.0001334670235875033
0.0135,0.00011437431876603309
0.01375,0.00010082278270786417
0.014,9.743097042415193e-05
0.01425,0.00010684603037290185
0.0145,0.0001273771032228216
0.01475,0.00015466158541236512
0.015,0.00018278082895881946
0.01525,0.00020466828155149775
0.0155,0.00021604675539955068
0.01575,0.00021462587585875705
0.016,0.00020182111144308423
0.01625,0.0001809661226694842
0.0165,0.00015684549348995216
0.01675,0.0001329705061512891
0.017,0.00011331426131549406
0.01725,9.919358665558153e-05
0.0175,9.174833735863566e-05
0.01775,8.958431113017565e-05
0.018,9.244337726468954e-05
0.01825,9.852982055734274e-05
0.0185,0.00010633844878200522
0.01875,0.00011428740730624601
0.019,0.00012010629588462057
0.01925,0.0001216591726431462
0.0195,0.00011603502954260324
0.01975,0.00010253498843944468
0.02,8.203917519362015e-05
0.02025,5.6875057921920807e-05
0.0205,3.0479865711549184e-05
0.02075,7.350422688667557e-06
0.021,-7.887583960070965e-06
0.02125,-1.3543119632330816e-05
0.0215,-9.590279541930753e-06
0.02175,1.5256752534072318e-06
0.022,1.5784295923834106e-05
0.02225,2.8648706448275225e-05
0.0225,3.63987989447439e-05
0.02275,3.705926359113218e-05
0.023,3.07524188778156e-05
0.02325,1.9352443986229546e-05
0.0235,5.694895905045219e-06
0.02375,-7.389384852953921e-06
0.024,-1.7938169549503293e-05
0.02425,-2.5072499331866795e-05
0.0245,-2.8927002401123462e-05
0.02475,-3.0257692798650163e-05
0.025,-2.9797477351246217e-05
0.02525,-2.796108263923218e-05
0.0255,-2.479757734952287e-05
0.02575,-2.0211584794030326e-05
0.026,-1.4245496033573203e-05
0.02625,-7.5918202257733325e-06
0.0265,-1.367965168037103e-06
0.02675,2.9162591462197705e-06
0.027,4.007830461935844e-06
0.02725,1.3226120073559735e-06
0.0275,-4.752084349410357e-06
0.02775,-1.2863024545868764e-05
0.028,-2.1092227930359995e-05
0.02825,-2.761281540052489e-05
0.0285,-3.110755861871378e-05
0.02875,-3.125111027136767e-05
0.029,-2.8636718798154944e-05
0.02925,-2.438233845605219e-05
0.0295,-1.9595234786245375e-05
0.02975,-1.5081033683525326e-05
0.03,-1.0995105457878811e-05
0.03025,-7.034198007820249e-06
0.0305,-2.919475759575644e-06
0.03075,1.4085895463260189e-06
0.031,5.274003436275056e-06
0.03125,7.449077795372663e-06
0.0315,6.674678391503657e-06
0.03175,2.0001392401784747e-06
0.032,-6.50256098170509e-06
0.03225,-1.741214349748995e-05
0.0325,-2.834109212934015e-05
0.03275,-3.640403595075235e-05
0.033,-3.912706048884845e-05
0.03325,-3.5116297868930687e-05
0.0335,-2.4774365903294243e-05
0.03375,-1.011528443068223e-05
0.034,5.72291271200425e-06
0.03425,1.9191892286741096e-05
0.0345,2.750768972676392e-05
0.03475,2.905312574457185e-05
0.035,2.3850169667578185e-05
0.03525,1.3373295402685491e-05
0.0355,3.3495723641494776e-08
0.03575,-1.3476658525086294e-05
0.036,-2.469732836121072e-05
0.03625,-3.1790059327433895e-05
0.0365,-3.366461936843002e-05
0.03675,-2.996042595746361e-05
0.037,-2.0963866477497505e-05
0.03725,-7.5724315817753035e-06
0.0375,8.73373229827168e-06
0.03775,2.5830838096609048e-05
0.038,4.136997935020946e-05
0.03825,5.27143719431383e-05
0.0385,5.794515747349093e-05
0.03875,5.613220157037841e-05
0.039,4.7941666297302855e-05
0.03925,3.5740070698544614e-05
0.0395,2.3285365858201483e-05
0.03975,1.4525871352067235e-05
0.04,1.3006461567192477e-05
0.04025,2.0869998483817592e-05
0.0405,3.7446401855029417e-05
0.04075,6.1032086671109384e-05
0.041,8.741307099463221e-05
0.04125,0.00011220281255936655
0.0415,0.00013102442901687342
0.04175,0.00014145199520415304
0.042,0.000142501799259899
0.04225,0.00013605030551778073
0.0425,0.00012459039805596823
0.04275,0.00011068985743482637
0.043,9.789468118372251e-05
0.04325,8.747284005018083e-05
0.0435,8.108207399291655e-05
0.04375,7.783703434786542e-05
0.044,7.743837847291672e-05
0.04425,7.876363586260635e-05
0.0445,8.138356547050838e-05
0.04475,8.392070647744e-05
0.045,8.507752820904508e-05
0.04525,8.39543565822386e-05
0.0455,7.972401839584232e-05
0.04575,7.100012299125277e-05
0.046,5.914102329445542e-05
0.04625,4.474426652552633e-05
0.0465,2.9767470487101543e-05
0.04675,1.6512550924831627e-05
0.047,7.115686549399686e-06
0.04725,2.5686631533872958e-06
0.0475,2.569800073898826e-06
0.04775,5.629397864791617e-06
0.048,9.251552975338827e-06
0.04825,1.0738581168858543e-05
0.0485,8.517503340859515e-06
0.04875,2.5701617482993924e-06
0.049,-5.463145961100351e-06
0.04925,-1.3043565593270525e-05
0.0495,-1.769769489363057e-05
0.04975,-1.8356395143362165e-05
0.05,-1.5959690703216248e-05
0.05025,-1.3932356412819313e-05
0.0505,-1.7055411578516316e-05
0.05075,-2.5347739327851056e-05
0.051,-3.770309095713553e-05
0.05125,-5.0061231219761864e-05
0.0515,-5.654931237949105e-05
0.05175,-4.974778304255465e-05
0.052,-2.230204705550209e-05
0.05225,3.098956146836814e-05
0.0525,0.00011130943255836882
0.05275,0.00021472630423982373
0.053,0.0003288780308984711
0.05325,0.00043110862413153013
0.0535,0.0005004330758784908
0.05375,0.0005254044080237425
0.054,0.0004979416747818628
0.05425,0.00042182734117546066
0.0545,0.00031739245043501015
0.05475,0.00019840895377374538
0.055,8.707795153567601e-05
0.05525,-2.9806807956396776e-06
0.0555,-6.376230121437418e-05
0.05575,-9.434024283238896e-05
0.056,-9.847153010691733e-05
0.05625,-8.371161630018359e-05
0.0565,-6.121650131872555e-05
0.05675,-3.915873460985702e-05
0.057,-2.2688869202436938e-05
0.05725,-1.2938061153577166e-05
0.0575,-9.559464435529866e-06
0.05775,-1.0012862837432613e-05
0.058,-1.1852364226361129e-05
0.05825,-1.330839776102338e-05
0.0585,-1.2711195620863593e-05
0.05875,-9.574938692325965e-06
0.059,-4.5463020238354305e-06
0.05925,1.2749159678910307e-06
0.0595,7.121912949465304e-06
0.05975,1.2532489447016553e-05
0.06,1.759976760356161e-05
0.06025,2.250267442963603e-05
0.0605,2.7510304817747648e-05
0.06075,3.259762335064088e-05
0.061,3.7657616038886355e-05
0.06125,4.230292345355478e-05
0.0615,4.605073263486858e-05
0.06175,4.8375066258161145e-05
0.062,4.90642905029624e-05
0.06225,4.810285494369525e-05
0.0625,4.5930644136829523e-05
0.06275,4.32366090486791e-05
0.063,4.0743691155695094e-05
0.06325,4.036183118380282e-05
0.0635,4.268909723257579e-05
0.06375,4.8369777717951546e-05
0.064,5.855820009656581e-05
0.06425,7.220412672319525e-05
0.0645,8.892704798888622e-05
0.06475,0.00010660592008037502
0.065,0.0001238991950121545
0.06525,0.00013844374718792896
0.0655,0.0001481127982214827
0.06575,0.00015263783195084275
0.066,0.00015152275844911074
0.06625,0.00014636257289465574
0.0665,0.00013897753305398245
0.06675,0.00013227887638809577
0.067,0.0001284942178839914
0.06725,0.00012983419373453672
0.0675,0.00013619591669473738
0.06775,0.00014866635686922904
0.068,0.0001649362712740765
0.06825,0.0001831709698558659
0.0685,0.00020093314655087753
0.06875,0.00021499464064681078
0.069,0.00022364008069471563
0.06925,0.00022553656133402736
0.0695,0.00022037154928978688
0.06975,0.00020891507815796957
0.07,0.0001928235511300572
0.07025,0.00017449573285106135
0.0705,0.00015651743575298082
0.07075,0.00014148496451235086
0.071,0.0001315841408602959
0.07125,0.0001274474080299302
0.0715,0.00012923749040238183
0.07175,0.00013528714160439563
0.072,0.00014416909749371146
0.07225,0.0001526317140042286
0.0725,0.00015802714619393246
0.07275,0.0001581369778851882
0.073,0.00015242806929408167
0.07325,0.00013981517623648483
0.0735,0.0001223371309289796
0.07375,0.00010144104375271946
0.074,7.914485621625633e-05
0.07425,5.8927024926533826e-05
0.0745,4.222248477296314e-05
0.07475,3.0940068803723656e-05
0.075,2.5348711869004728e-05
0.07525,2.6046645618780264e-05
0.0755,3.1319105744120176e-05
0.07575,3.933268923633424e-05
0.076,4.864393069477598e-05
0.07625,5.642353385266155e-05
0.0765,6.143853049922868e-05
0.07675,6.198155113429365e-05
0.077,5.769605225632143e-05
0.07725,4.860535352168561e-05
0.0775,3.58621809988241e-05
0.07775,2.1076657273882977e-05
0.078,6.338587148840207e-06
0.07825,-6.388832050160546e-06
0.0785,-1.5194377688160002e-05
0.07875,-1.9110753595916364e-05
0.079,-1.7649548869846705e-05
0.07925,-1.1396984441799784e-05
0.0795,-1.4585185657063272e-06
0.07975,1.0362840709498786e-05
0.08,2.224547664554941e-05
0.08025,3.224924016676873e-05
0.0805,3.8975257695539114e-05
0.08075,4.137592818157034e-05
0.081,3.9164264598611135e-05
0.08125,3.261830652183067e-05
0.0815,2.264214428990397e-05
0.08175,1.059202498856542e-05
0.082,-1.679657953279144e-06
0.08225,-1.254953853285114e-05
0.0825,-2.0196382475704816e-05
0.08275,-2.340691810356172e-05
0.083,-2.1490320687305347e-05
0.08325,-1.4547858775562288e-05
0.0835,-3.4725226599832167e-06
0.08375,1.0100000205149254e-05
0.084,2.4118631631751075e-05
0.08425,3.633162927109233e-05
0.0845,4.4667699160841104e-05
0.08475,4.758455334457081e-05
0.085,4.4526376163433e-05
0.08525,3.573214621206301e-05
0.0855,2.2542775051916027e-05
0.08575,6.9084810149012515e-06
0.086,-8.63259359012123e-06
0.08625,-2.1525617046217996e-05
0.0865,-2.9553701959345966e-05
0.08675,-3.134303089739996e-05
0.087,-2.6253287944048333e-05
0.08725,-1.5015062384294817e-05
0.0875,7.523752975966001e-07
0.08775,1.849501186735429e-05
0.088,3.5346575119480234e-05
0.08825,4.8403031142486204e-05
0.0885,5.5345772395113126e-05
0.08875,5.483495190084073e-05
0.089,4.672191905027083e-05
0.08925,3.22791943385808e-05
0.0895,1.3860628534089654e-05
0.08975,-5.3535831533737525e-06
0.09,-2.1777625327985904e-05
0.09025,-3.2456862924305615e-05
0.0905,-3.507218037135288e-05
0.09075,-2.8865786698296475e-05
0.091,-1.4433647631554303e-05
0.09125,6.092583289666797e-06
0.0915,2.9647648151024628e-05
0.09175,5.245618144243841e-05
0.092,7.105547747104446e-05
0.09225,8.261050999530323e-05
0.0925,8.588610732451387e-05
0.09275,8.08710555198492e-05
0.093,6.923383405564113e-05
0.09325,5.476071976220044e-05
0.0935,4.028648813951102e-05
0.09375,2.984323794991911e-05
0.094,2.6648146278028935e-05
0.09425,3.148742124083142e-05
0.0945,4.5603677770199526e-05
0.09475,6.701231948101653e-05
0.095,9.301290862388065e-05
0.09525,0.00012004764126341883
0.0955,0.00014435721327539248
0.09575,0.00016283126234071374
0.096,0.00017352079517376272
0.09625,0.00017553372971274361
0.0965,0.0001690745892995213
0.09675,0.00015552356628710303
0.097,0.000137916199095811
0.09725,0.00011862494892309983
0.0975,0.0001007396179721258
0.09775,8.68458940756719e-05
0.098,7.877924287293591e-05
0.09825,7.633357334348178e-05
0.0985,7.972236360373627e-05
0.09875,8.664940913495308e-05
0.099,9.504344661134546e-05
0.09925,0.00010246852526942115
0.0995,0.00010594857023358947
0.09975,0.00010453034136907556
0.1,9.758687432722496e-05
0.10025,8.531808470005778e-05
0.1005,7.033723544907492e-05
0.10075,5.423581411417637e-05
0.101,3.875134831435133e-05
0.10125,2.6168762656005132e-05
0.1015,1.6780175328129028e-05
0.10175,1.0867508723660136e-05
0.102,8.283108574493422e-06
0.10225,7.143354379852584e-06
0.1025,6.627018638070561e-06
0.10275,6.280274513181228e-06
0.103,6.826214200007848e-06
0.10325,8.71723134424417e-06
0.1035,1.2428296828647574e-05
0.10375,1.702807590601207e-05
0.104,2.0912534639090817e-05
0.10425,2.091299356744118e-05
0.1045,1.4575619074722321e-05
0.10475,-2.2895462001768692e-07
0.105,-2.246638608967746e-05
0.10525,-4.49155091623994e-05
0.1055,-5.814387026602065e-05
0.10575,-5.341746047790019e-05
0.106,-2.2708289769663552e-05
0.10625,3.726413417432277e-05
0.1065,0.00012606881743221525
0.10675,0.00023549760352089
0.107,0.00035298410320655326
0.10725,0.00045699734796474095
0.1075,0.0005259059401303446
0.10775,0.0005498823594204447
0.108,0.0005158208592028587
0.10825,0.00043636392197077755
0.1085,0.0003250072162609332
0.10875,0.00020129784465106252
0.109,8.399724762335607e-05
0.10925,-1.1492999135746344e-05
0.1095,-7.754337577099753e-05
0.10975,-0.00011172550145134175
0.11,-0.00011847721656206954
0.11025,-0.00010589387606724044
0.1105,-8.232176426468515e-05
0.11075,-5.6591397397940754e-05
0.111,-3.585888560820845e-05
0.11125,-2.1504522988049734e-05
0.1115,-1.459999828672024e-05
0.11175,-1.2107109387141593e-05
0.112,-1.2245216468260486e-05
0.11225,-1.2705204481467428e-05
0.1125,-1.2438622169424897e-05
0.11275,-1.0640753616324352e-05
0.113,-8.470708199929258e-06
0.11325,-6.469857683394728e-06
0.1135,-5.058615945162508e-06
0.11375,-3.5483271931087512e-06
0.114,-1.0828030546133921e-06
0.11425,3.427480886677374e-06
0.1145,1.0435631491221127e-05
0.11475,1.967207294758488e-05
0.115,2.9975481760317708e-05
0.11525,3.977944280170019e-05
0.1155,4.7382365976452155e-05
0.11575,5.1615947063961216e-05
0.116,5.191793303278604e-05
0.11625,4.8742618930779236e-05
0.1165,4.3071196631210244e-05
0.11675,3.643133693355809e-05
0.117,3.046374132040518e-05
0.11725,2.737975648567232e-05
0.1175,2.7492904780745192e-05
0.11775,3.19804117423442e-05
0.118,4.176171993076875e-05
0.11825,5.598041297878547e-05
0.1185,7.35527406521599e-05
0.11875,9.315081811373283e-05
0.119,0.00011242295519674763
0.11925,0.00012937295846916509
0.1195,0.00014161475883852723
0.11975,0.00014802286600582585
0.12,0.00014766376456257137
0.12025,0.0001424151631766716
0.1205,0.00013363043195336783
0.12075,0.00012506417241613249
0.121,0.0001191922921826135
0.12125,0.00011899603363063564
0.1215,0.00012579481127030932
0.12175,0.00013871556265901666
0.122,0.00015653304239268185
0.12225,0.00017621938508117192
0.1225,0.00019410780133740938
0.12275,0.00020827434178328377
0.123,0.00021626404970670634
0.12325,0.0002177470676123901
0.1235,0.00021340723197217485
0.12375,0.00020386710577163916
0.124,0.00019137559540191208
0.12425,0.00017850491676815955
0.1245,0.00016659135101299754
0.12475,0.00015689940884465928
0.125,0.0001503093515733569
0.12525,0.00014708899575737486
0.1255,0.00014635142548634678
0.12575,0.00014836325008605144
0.126,0.0001509058149187494
0.12625,0.00015320014697640315
0.1265,0.00015344127332942372
0.12675,0.00015059546619523712
0.127,0.00014420226758524242
0.12725,0.00013407726228024673
0.1275,0.00012071323349816939
0.12775,0.00010605861372149075
0.128,9.085888235730501e-05
0.12825,7.76460630282567e-05
0.1285,6.703880908983604e-05
0.12875,5.915673009812863e-05
0.129,5.3730132837597464e-05
0.12925,5.0613831868658936e-05
0.1295,4.782549806431964e-05
0.12975,4.5244079786022e-05
0.13,4.2043903667324154e-05
0.13025,3.846760578845934e-05
0.1305,3.464202630192309e-05
0.13075,3.116573046999946e-05
0.131,2.8167820050187505e-05
0.13125,2.5870189867751527e-05
0.1315,2.365749110985708e-05
0.13175,2.125694633415297e-05
0.132,1.79739255210844e-05
0.13225,1.3736687732604007e-05
0.1325,8.516237953948476e-06
0.13275,3.043531992268271e-06
0.133,-2.1678710778837654e-06
0.13325,-6.2711450204195424e-06
0.1335,-8.863115616729069e-06
0.13375,-9.641936811203555e-06
0.134,-8.88551946735309e-06
0.13425,-6.8508672232547885e-06
0.1345,-4.156037414599813e-06
0.13475,-1.1249170015691426e-06
0.135,1.7230793083910387e-06
0.13525,4.2179346086043e-06
0.1355,5.944512965198726e-06
0.13575,6.72887405018936e-06
0.136,6.159896891865435e-06
0.13625,4.1267200919874955e-06
0.1365,5.169990767926395e-07
0.13675,-4.22657842457898e-06
0.137,-9.545066237887748e-06
0.13725,-1.4418810662247193e-05
0.1375,-1.7934554116275364e-05
0.13775,-1.9144084542720855e-05
0.138,-1.7839797632040444e-05
0.13825,-1.4087010700005119e-05
0.1385,-8.71397795563911e-06
0.13875,-2.7258678812912013e-06
0.139,2.62254348634463e-06
0.13925,6.542225200856085e-06
0.1395,8.438593524814814e-06
0.13975,8.338944798204994e-06
0.14,6.549532825043069e-06
0.14025,3.6273605234738678e-06
0.1405,7.271503974345111e-08
0.14075,-3.734540475754988e-06
0.141,-7.584916478982969e-06
0.14125,-1.1234517488138737e-05
0.1415,-1.448922091350584e-05
0.14175,-1.6971944484564703e-05
0.142,-1.8142961575563715e-05
0.14225,-1.737877216733343e-05
0.1425,-1.4435161167268528e-05
0.14275,-9.25212709345961e-06
0.143,-2.4672533483210863e-06
0.14325,4.955504488438146e-06
0.1435,1.160779682433752e-05
0.14375,1.6230129065191256e-05
0.144,1.775788467002574e-05
0.14425,1.583719909220767e-05
0.1445,1.0664802160362214e-05
0.14475,3.1966182436784126e-06
0.145,-5.289197937575039e-06
0.14525,-1.3227690993156239e-05
0.1455,-1.9269993320448645e-05
0.14575,-2.2255967988371533e-05
0.146,-2.152949894260404e-05
0.14625,-1.68087533944697e-05
0.1465,-8.35802491680401e-06
0.14675,3.1877156118902282e-06
0.147,1.6622354746528042e-05
0.14725,3.052138127170458e-05
0.1475,4.30478143203003e-05
0.14775,5.25461675354149e-05
0.148,5.7739049769469196e-05
0.14825,5.800006844076367e-05
0.1485,5.385253821811361e-05
0.14875,4.664279459851515e-05
0.149,3.8527179353129244e-05
0.14925,3.247858676283053e-05
0.1495,3.075992779210209e-05
0.14975,3.540618139633829e-05
0.15,4.6963637573453096e-05
0.15025,6.418562564656754e-05
0.1505,8.482579385884403e-05
0.15075,0.00010633108305962386
0.151,0.00012520792087720181
0.15125,0.00013890718494128043
0.1515,0.00014534926569754328
0.15175,0.00014412360464031952
0.152,0.00013551306528172442
0.15225,0.00012172152677068699
0.1525,0.00010457370736921744
0.15275,8.631488250783099e-05
0.153,6.991614988375748e-05
0.15325,5.674173196790362e-05
0.1535,4.794115148138937e-05
0.15375,4.48296957479064e-05
0.154,4.63628221092261e-05
0.15425,5.125845055477706e-05
0.1545,5.777087792679449e-05
0.15475,6.434320933722601e-05
0.155,6.737899209236661e-05
0.15525,6.637450894983886e-05
0.1555,5.9710516488773824e-05
0.15575,4.823303745924638e-05
0.156,3.2963416100328614e-05
0.15625,1.6391998674648806e-05
0.1565,3.0347490841588886e-07
0.15675,-1.2826663029355564e-05
0.157,-2.2321655354831592e-05
0.15725,-2.7626522935894307e-05
0.1575,-2.9752729071873263e-05
0.15775,-2.930203334482694e-05
0.158,-2.7507128577505738e-05
0.15825,-2.4476579693271576e-05
0.1585,-2.0744212706358755e-05
0.15875,-1.6004036533878263e-05
0.159,-1.14469874787796e-05
0.15925,-8.185748614270038e-06
0.1595,-8.639894000556908e-06
0.15975,-1.4190759670919196e-05
0.16,-2.5296572894881538e-05
0.16025,-4.191854024761938e-05
0.1605,-6.117881901785343e-05
0.16075,-7.750072653637331e-05
0.161,-8.216307906465115e-05
0.16125,-6.622438627494764e-05
0.1615,-2.3644966770397643e-05
0.16175,4.880829720289103e-05
0.162,0.00014666336180457981
0.16225,0.0002610483790696426
0.1625,0.0003745319386142378
0.16275,0.0004690159285142448
0.163,0.0005229609324497605
0.16325,0.0005253148419419631
0.1635,0.00047844071245595914
0.16375,0.0003859938245511652
0.164,0.00026988152021962966
0.16425,0.00014724572520705286
0.1645,3.658048767687361e-05
0.16475,-5.012209747402951e-05
0.165,-0.000106565445058975
0.16525,-0.0001335842548840411
0.1655,-0.00013576795733942872
0.16575,-0.00012120277729837383
0.166,-9.923750541589285e-05
0.16625,-7.758896729312314e-05
0.1665,-5.933695165292832e-05
0.16675,-4.625397796556116e-05
0.167,-3.804483297237764e-05
0.16725,-3.3213171709148435e-05
0.1675,-3.125436437484599e-05
0.16775,-3.140723817963644e-05
0.168,-3.217764006122845e-05
0.16825,-3.362089362320486e-05
0.1685,-3.553937385905004e-05
0.16875,-3.7733547670902064e-05
0.169,-3.90249603781036e-05
0.16925,-3.8275219276602174e-05
0.1695,-3.4115267754035504e-05
0.16975,-2.6071642961327627e-05
0.17,-1.4288014262765047e-05
0.17025,-1.649759309469773e-07
0.1705,1.4301411771098168e-05
0.17075,2.6552820935453967e-05
0.171,3.460820183303808e-05
0.17125,3.703944345223722e-05
0.1715,3.376991600439975e-05
0.17175,2.5569747462539287e-05
0.172,1.4481779950171311e-05
0.17225,2.799907114621342e-06
0.1725,-6.783958349683172e-06
0.17275,-1.2100643891338542e-05
0.173,-1.1155275162469535e-05
0.17325,-3.3875588726096544e-06
0.1735,1.1456196624893061e-05
0.17375,3.244400687990222e-05
0.174,5.676444490279992e-05
0.17425,8.186137193395554e-05
0.1745,0.00010407035437633821
0.17475,0.0001207940880034011
0.175,0.00012926073809089105
0.17525,0.00012897623762945983
0.1755,0.00012070023527911072
0.17575,0.00010728084781260405
0.176,9.23267513418345e-05
0.17625,7.990380034633704e-05
0.1765,7.387090972202813e-05
0.17675,7.713325538253379e-05
0.177,8.946639686019774e-05
0.17725,0.00010964390227297876
0.1775,0.00013486113521520674
0.17775,0.00016041922017771056
0.178,0.0001826047630680301
0.17825,0.00019753190672985074
0.1785,0.000203564931931486
0.17875,0.00020069698997002056
0.179,0.00018966465243308993
0.17925,0.00017303944694272498
0.1795,0.00015446442596599549
0.17975,0.00013625600274257534
0.18,0.00012178594130458084
0.18025,0.00011241201416741463
0.1805,0.00010926766221765991
0.18075,0.00011185936183030591
0.181,0.00011869590359320669
0.18125,0.00012770558760305927
0.1815,0.0001361704812255266
0.18175,0.000142211831630049
0.182,0.00014313999406124505
0.18225,0.0001379483206838503
0.1825,0.00012638875112645347
0.18275,0.00011007280507006001
0.183,9.047973177006426e-05
0.18325,7.018660341011171e-05
0.1835,5.212065771403099e-05
0.18375,3.77587157499971e-05
0.184,2.8093029179927792e-05
0.18425,2.313885450164664e-05
0.1845,2.2094832871504703e-05
0.18475,2.309829141795495e-05
0.185,2.473913306218539e-05
0.18525,2.5331081339276933e-05
0.1855,2.4227644371202796e-05
0.18575,2.1055898619824752e-05
0.186,1.6137926264259925e-05
0.18625,1.0042567161834405e-05
0.1865,3.461629662264171e-06
0.18675,-3.2160945358484367e-06
0.187,-9.642929776294754e-06
0.18725,-1.5800500508321347e-05
0.1875,-2.1595082512147823e-05
0.18775,-2.6982779205020826e-05
0.188,-3.1556260746277855e-05
0.18825,-3.5065628370247536e-05
0.1885,-3.7131471221714434e-05
0.18875,-3.764311794567034e-05
0.189,-3.656729528338608e-05
0.18925,-3.438511836381533e-05
0.1895,-3.1595171718838725e-05
0.18975,-2.8894156776047132e-05
0.19,-2.6846960213532974e-05
0.19025,-2.5848858665827918e-05
0.1905,-2.608138493023427e-05
0.19075,-2.7478818718361244e-05
0.191,-2.9780693239014736e-05
0.19125,-3.285164442261192e-05
0.1915,-3.6331415515043686e-05
0.19175,-3.989114892595399e-05
0.192,-4.315310638432206e-05
0.19225,-4.573911963662282e-05
0.1925,-4.716803852632268e-05
0.19275,-4.7081291614198655e-05
0.193,-4.526925442247958e-05
0.19325,-4.1888000707521026e-05
0.1935,-3.754738740791587e-05
0.19375,-3.304940779322355e-05
0.194,-2.945434907114584e-05
0.19425,-2.7639452601109586e-05
0.1945,-2.810004512682653e-05
0.19475,-3.075456696822536e-05
0.195,-3.488848846535935e-05
0.19525,-3.949093569085829e-05
0.1955,-4.33127948781285e-05
0.19575,-4.534077296163184e-05
0.196,-4.514400576769311e-05
0.19625,-4.2950539394867564e-05
0.1965,-3.95214148172579e-05
0.19675,-3.6016158742922916e-05
0.197,-3.358077480908145e-05
0.19725,-3.2916409653709624e-05
0.1975,-3.422449907032351e-05
0.19775,-3.7017981319124154e-05
0.198,-4.042435752354306e-05
0.19825,-4.3318196229288306e-05
0.1985,-4.469807862112287e-05
0.19875,-4.405192766211397e-05
0.199,-4.140834988454871e-05
0.19925,-3.719557662507736e-05
0.1995,-3.232905186617275e-05
0.19975,-2.783298087400779e-05
0.2,-2.4686144731777158e-05
0.20025,-2.352992661665725e-05
0.2005,-2.47115380970583e-05
0.20075,-2.8139794361355495e-05
0.201,-3.324918027028572e-05
0.20125,-3.914130562722533e-05
0.2015,-4.460038142104818e-05
0.20175,-4.8351445733352366e-05
0.202,-4.90919975687877e-05
0.20225,-4.593830993761814e-05
0.2025,-3.8387625869992446e-05
0.20275,-2.69674552726135e-05
0.203,-1.284117409756e-05
0.20325,1.9746724892924715e-06
0.2035,1.5175862586525058e-05
0.20375,2.4470314776696683e-05
0.204,2.8481304600140863e-05
0.20425,2.6818977812716453e-05
0.2045,2.063840919490854e-05
0.20475,1.2113002764019193e-05
0.205,4.487882493085446e-06
0.20525,6.912421270453311e-07
0.2055,3.383256170476651e-06
0.20575,1.3363736516909643e-05
0.206,3.0108315798901552e-05
0.20625,5.1848863527295624e-05
0.2065,7.476913354398398e-05
0.20675,9.57196779889036e-05
0.207,0.00011142372354521535
0.20725,0.00011951714942655407
0.2075,0.00011943015119371346
0.20775,0.00011154724148378511
0.208,9.766921133739912e-05
0.20825,8.078397144710019e-05
0.2085,6.263012955495635e-05
0.20875,4.6582397291959e-05
0.209,3.415638670848613e-05
0.20925,2.657859183183067e-05
0.2095,2.442561357214099e-05
0.20975,2.6697350082401574e-05
0.21,3.243541246642908e-05
0.21025,3.967722240051359e-05
0.2105,4.61629377566557e-05
0.21075,4.95544886032286e-05
0.211,4.809660588793792e-05
0.21125,4.0741914825882327e-05
0.2115,2.7561258344720392e-05
0.21175,9.846580483763349e-06
0.212,-1.0002446630844388e-05
0.21225,-2.901972245486616e-05
0.2125,-4.44779734027975e-05
0.21275,-5.431507062173527e-05
0.213,-5.7846348587210924e-05
0.21325,-5.568672908054042e-05
0.2135,-4.960823651663911e-05
0.21375,-4.193991071932517e-05
0.214,-3.505617133971081e-05
0.21425,-3.0315362692311643e-05
0.2145,-2.8870129363728815e-05
0.21475,-3.060884337520836e-05
0.215,-3.652831997465395e-05
0.21525,-4.9533236692362265e-05
0.2155,-6.519014855331237e-05
0.21575,-8.080120153337105e-05
0.216,-9.406384122225263e-05
0.21625,-0.00010443022461521303
0.2165,-0.00010960910179315145
0.21675,-0.00010686206002977257
0.217,-9.279379634741423e-05
0.21725,-6.328192789788915e-05
0.2175,-1.4027398645792347e-05
0.21775,5.625665257904893e-05
0.218,0.0001463637692676803
0.21825,0.0002514412525058379
0.2185,0.00035992336507915804
0.21875,0.00044739434452391346
0.219,0.0004976273175979225
0.21925,0.0005000466685533412
0.2195,0.0004522421795045953
0.21975,0.00036324875170669823
0.22,0.00024570565609425
0.22025,0.00012152616992164554
0.2205,8.78067289802385e-06
0.22075,-7.811216420224073e-05
0.221,-0.0001321555863725464
0.22125,-0.00015238538919931966
0.2215,-0.00014491968048398334
0.22175,-0.00011772801730244205
0.222,-8.342629918087991e-05
0.22225,-5.158060288699046e-05
0.2225,-2.8736995903375965e-05
0.22275,-1.736644617984014e-05
0.223,-1.694035623736656e-05
0.22325,-2.3742692160679196e-05
0.2235,-3.450965632361744e-05
0.22375,-4.4836735385123756e-05
0.224,-5.2205848606492726e-05
0.22425,-5.495927717010662e-05
0.2245,-5.379406652268032e-05
0.22475,-4.9088807870732905e-05
0.225,-4.201258561127802e-05
0.22525,-3.266504025148263e-05
0.2255,-2.1509950131489524e-05
0.22575,-8.509308911455563e-06
0.226,5.507222490618974e-06
0.22625,1.943759925996643e-05
0.2265,3.109305386479558e-05
0.22675,3.872466171665786e-05
0.227,4.04806347531894e-05
0.22725,3.5916921140632385e-05
0.2275,2.5460474925764392e-05
0.22775,1.1448402806381943e-05
0.228,-3.3127135877502975e-06
0.22825,-1.505597218544746e-05
0.2285,-2.105365693271477e-05
0.22875,-1.8919315423698143e-05
0.229,-8.535796623978402e-06
0.22925,9.545623021137851e-06
0.2295,3.265988482603336e-05
0.22975,5.812852449449766e-05
0.23,8.304373587527566e-05
0.23025,0.00010385497870679973
0.2305,0.00011874912769017934
0.23075,0.00012673041807040436
0.231,0.0001270962012829107
0.23125,0.00012105107571087604
0.2315,0.00010994928552025395
0.23175,9.65011007979135e-05
0.232,8.386605794440752e-05
0.23225,7.49747805480076e-05
0.2325,7.257160750029603e-05
0.23275,7.849684157159667e-05
0.233,9.297708268164713e-05
0.23325,0.00011470342998463925
0.2335,0.00014021899306160748
0.23375,0.00016610361215105995
0.234,0.0001880066045862971
0.23425,0.0002021551359649533
0.2345,0.0002060686519371624
0.23475,0.00019957602794591156
0.235,0.00018358911267765543
0.23525,0.00016141887527389203
0.2355,0.00013709055241474785
0.23575,0.00011397562627893471
0.236,9.5914675005254e-05
0.23625,8.509168501001926e-05
0.2365,8.144961013836468e-05
0.23675,8.49068649139918e-05
0.237,9.355237503300013e-05
0.23725,0.00010462448675805638
0.2375,0.00011588025415368782
0.23775,0.00012440165858638142
0.238,0.0001283182696790501
0.23825,0.0001257664618893197
0.2385,0.00011658630094244501
0.23875,0.00010083979972215211
0.239,7.979752740650025e-05
0.23925,5.565462291605086e-05
0.2395,3.124976560779454e-05
0.23975,9.136863681357712e-06
0.24,-7.674208057777307e-06
0.24025,-1.7828043745577073e-05
0.2405,-2.0368274093836622e-05
0.24075,-1.6113588854848817e-05
0.241,-6.770786136016926e-06
0.24125,4.909645551387398e-06
0.2415,1.6140610202616556e-05
0.24175,2.430866855545489e-05
0.242,2.7686617718966753e-05
0.24225,2.5470430699437485e-05
0.2425,1.7984072324511444e-05
0.24275,6.257583378011924e-06
0.243,-8.045767887024339e-06
0.24325,-2.3192858571299326e-05
0.2435,-3.7387654921176095e-05
0.24375,-4.919161003197141e-05
0.244,-5.7323161754634955e-05
0.24425,-6.102487763255117e-05
0.2445,-5.9892735964146845e-05
0.24475,-5.404109760654716e-05
0.245,-4.421589410789741e-05
0.24525,-3.176942422599206e-05
0.2455,-1.8614111562495643e-05
0.24575,-6.864394493254001e-06
0.246,1.3606006983752146e-06
0.24625,4.514876240037376e-06
0.2465,1.9300132623779166e-06
0.24675,-6.100415390943878e-06
0.247,-1.8096295239133692e-05
0.24725,-3.202036290163414e-05
0.2475,-4.545321326015225e-05
0.24775,-5.612967323179006e-05
0.248,-6.238703995265757e-05
0.24825,-6.354865686274435e-05
0.2485,-5.957367563087841e-05
0.24875,-5.1426922910642574e-05
0.249,-4.043875454192469e-05
0.24925,-2.817986343965934e-05
0.2495,-1.62916154929771e-05
0.24975,-6.247325319775285e-06
0.25,7.145317119717481e-07
0.25025,3.664815355443372e-06
0.2505,2.0920733313304773e-06
0.25075,-3.992090110377776e-06
0.251,-1.394167064271383e-05
0.25125,-2.6443442519401176e-05
0.2515,-3.9623713234144905e-05
0.25175,-5.127769932675721e-05
0.252,-5.931846155274362e-05
0.25225,-6.213326347662216e-05
0.2525,-5.895663709377878e-05
0.25275,-5.023757277438161e-05
0.253,-3.7396450979851966e-05
0.25325,-2.268806458403249e-05
0.2535,-8.618837343940851e-06
0.25375,2.471231532226478e-06
0.254,8.850064600530376e-06
0.25425,9.751220863738343e-06
0.2545,5.383764995145181e-06
0.25475,-3.290432232835488e-06
0.255,-1.468267290174961e-05
0.25525,-2.6988309142826077e-05
0.2555,-3.8477135004450664e-05
0.25575,-4.7440704881915416e-05
0.256,-5.259153644967862e-05
0.25625,-5.299175250783151e-05
0.2565,-4.8276439013991626e-05
0.25675,-3.8576045336900485e-05
0.257,-2.4878065301141984e-05
0.25725,-8.629206998124807e-06
0.2575,7.933052421261864e-06
0.25775,2.254183404538021e-05
0.258,3.309702512631615e-05
0.25825,3.8114855020605107e-05
0.2585,3.7282093070658215e-05
0.25875,3.1507542899683415e-05
0.259,2.2718103167944997e-05
0.25925,1.3711080400026487e-05
0.2595,7.165471379093812e-06
0.25975,5.53221375377222e-06
0.26,1.0045838639456758e-05
0.26025,2.0594531235824895e-05
0.2605,3.618432023044369e-05
0.26075,5.46586492515598e-05
0.261,7.401881109657454e-05
0.26125,9.202028276086208e-05
0.2615,0.00010649300734127212
0.26175,0.00011637274926433821
0.262,0.00012121884052603052
0.26225,0.00012033561124744134
0.2625,0.00011496220124468807
0.26275,0.00010510737173848359
0.263,9.234272370788426e-05
0.26325,7.801810322287511e-05
0.2635,6.33542382395752e-05
0.26375,5.0750161001844344e-05
0.264,4.111925220741496e-05
0.26425,3.556696963191755e-05
0.2645,3.411816935687818e-05
0.26475,3.595355998122505e-05
0.265,3.979980647419774e-05
0.26525,4.371702456145037e-05
0.2655,4.5861981861292154e-05
0.26575,4.5149656533266294e-05
0.266,4.110500062265446e-05
0.26625,3.414913234827445e-05
0.2665,2.5072459814607275e-05
0.26675,1.4897676277374255e-05
0.267,4.33491961587121e-06
0.26725,-6.265155581288747e-06
0.2675,-1.6889267903357685e-05
0.26775,-2.737704628835437e-05
0.268,-3.7149462391963185e-05
0.26825,-4.525426954093133e-05
0.2685,-5.037169313432828e-05
0.26875,-5.085925113931749e-05
0.269,-4.593959903079616e-05
0.26925,-3.5894877680898925e-05
0.2695,-2.3117285703050108e-05
0.26975,-1.1807943272757e-05
0.27,-6.724567083994938e-06
0.27025,-1.0445730878296536e-05
0.2705,-2.310406083451406e-05
0.27075,-4.2269376182533465e-05
0.271,-6.310502713118689e-05
0.27125,-7.666495777995427e-05
0.2715,-7.302186784631408e-05
0.27175,-4.326034305833644e-05
0.272,1.8803446299306826e-05
0.27225,0.00011024093448449776
0.2725,0.00021986767992005356
0.27275,0.0003322413936232398
0.273,0.0004299125062630815
0.27325,0.0004941277453891665
0.2735,0.0005076332529742304
0.27375,0.00046614114463894914
0.274,0.0003834340586930912
0.27425,0.0002747391942197149
0.2745,0.00015665077059399187
0.27475,4.6431168150231054e-05
0.275,-4.067881265217478e-05
0.27525,-9.757105718788566e-05
0.2755,-0.00012549381717411124
0.27575,-0.00012911455150046945
0.276,-0.00011581161752968053
0.27625,-9.336773893577158e-05
0.2765,-6.970984479934004e-05
0.27675,-4.994000430444137e-05
0.277,-3.5184246928794246e-05
0.27725,-2.530803630531273e-05
0.2775,-1.858331609235543e-05
0.27775,-1.3401180749171167e-05
0.278,-8.720175947582612e-06
0.27825,-4.3001096024243665e-06
0.2785,-6.086767309803812e-07
0.27875,7.738456179982902e-07
0.279,-1.0572503174559743e-06
0.27925,-5.9864102834334565e-06
0.2795,-1.2451560061301745e-05
0.27975,-1.8291369666487306e-05
0.28,-2.086179539210658e-05
0.28025,-1.8458312794353334e-05
0.2805,-1.0220636911121103e-05
0.28075,3.0254462535432774e-06
0.281,1.9505779858687207e-05
0.28125,3.624182088816763e-05
0.2815,5.036847008978473e-05
0.28175,5.926112013564585e-05
0.282,6.171759977863212e-05
0.28225,5.754839298210515e-05
0.2825,4.836524655893691e-05
0.28275,3.630360200113607e-05
0.283,2.504066796609516e-05
0.28325,1.74607867431265e-05
0.2835,1.6075857255013643e-05
0.28375,2.2751305352739367e-05
0.284,3.785732282289022e-05
0.28425,5.97364470662603e-05
0.2845,8.597334556816578e-05
0.28475,0.00011297546786758908
0.285,0.00013690400605218697
0.28525,0.0001539435842714711
0.2855,0.0001624110650954231
0.28575,0.00016152742805607194
0.286,0.00015223434521428376
0.28625,0.0001380060845399413
0.2865,0.00012278985461083953
0.28675,0.00011064086303335778
0.287,0.00010481707743748593
0.28725,0.0001083776814701427
0.2875,0.00012067056348298206
0.28775,0.0001404527183177733
0.288,0.0001635496427278922
0.28825,0.00018695206949640906
0.2885,0.000205232288473977
0.28875,0.00021604036903898538
0.289,0.00021652765534764418
0.28925,0.00020745703791550215
0.2895,0.00019002013542355881
0.28975,0.00016792005212392476
0.29,0.00014490533655213132
0.29025,0.00012450025625712312
0.2905,0.00010948724240783787
0.29075,0.0001021447618417091
0.291,0.00010173941575506278
0.29125,0.0001075275235228657
0.2915,0.0001169400773288628
0.29175,0.00012697593434707677
0.292,0.00013429636215625
0.29225,0.00013634524575371125
0.2925,0.00013158003674185217
0.29275,0.00012013586583753685
0.293,0.00010266423846898428
0.29325,8.127978467774383e-05
0.2935,5.92259820159912e-05
0.29375,3.9124546782412316e-05
0.294,2.3884872354285302e-05
0.29425,1.4810317448931827e-05
0.2945,1.2159492617475988e-05
0.29475,1.4911440823649842e-05
0.295,2.1476160160334985e-05
0.29525,2.9294134275610353e-05
0.2955,3.6078551196592725e-05
0.29575,3.982537094905587e-05
0.296,3.952495779611575e-05
0.29625,3.494436402060863e-05
0.2965,2.6749104985232013e-05
0.29675,1.6292892553334613e-05
0.297,5.1525678047551884e-06
0.29725,-5.164314038232715e-06
0.2975,-1.3348438464008204e-05
0.29775,-1.8611359049937597e-05
0.298,-2.063714463656623e-05
0.29825,-1.957110763942657e-05
0.2985,-1.59343644369975e-05
0.29875,-1.0485062434781544e-05
0.299,-4.160759418787155e-06
0.29925,2.1237705633254503e-06
0.2995,7.489903253956088e-06
0.29975,1.1216577534210948e-05
0.3,1.2725392354411294e-05
0.30025,1.1874044782590561e-05
0.3005,8.727796667242798e-06
0.30075,3.645401449449363e-06
0.301,-2.6760482301539246e-06
0.30125,-9.386483976072954e-06
0.3015,-1.550303199555998e-05
0.30175,-2.0122105787881908e-05
0.302,-2.2438234102070687e-05
0.30225,-2.190525903946892e-05
0.3025,-1.832519167186166e-05
0.30275,-1.1917261624169975e-05
0.303,-3.3686147675539254e-06
0.30325,6.217444069425847e-06
0.3035,1.5375351688453764e-05
0.30375,2.2530751214413015e-05
0.304,2.619416394292861e-05
0.30425,2.53610707272977e-05
0.3045,1.9691175882909292e-05
0.30475,9.789313233344104e-06
0.305,-2.8706945392783656e-06
0.30525,-1.6038179415321617e-05
0.3055,-2.716733544202946e-05
0.30575,-3.382445060380232e-05
0.306,-3.4305659536767584e-05
0.30625,-2.7985795536522827e-05
0.3065,-1.561780833719397e-05
0.30675,8.269859309199609e-07
0.307,1.839347422812678e-05
0.30725,3.377201220106789e-05
0.3075,4.389825256576372e-05
0.30775,4.664596739702461e-05
0.308,4.121228475266287e-05
0.30825,2.8392190693793e-05
0.3085,1.0400632672727683e-05
0.30875,-9.450196759565254e-06
0.309,-2.7386804519643415e-05
0.30925,-3.981371610266452e-05
0.3095,-4.404756924193892e-05
0.30975,-3.875257489772045e-05
0.31,-2.4386726587720955e-05
0.31025,-2.9694099815532934e-06
0.3105,2.1951897952512856e-05
0.31075,4.618731511549224e-05
0.311,6.557305744842254e-05
0.31125,7.668766521422604e-05
0.3115,7.774324992978579e-05
0.31175,6.905306105526725e-05
0.312,5.279111408904544e-05
0.31225,3.294995834418277e-05
0.3125,1.4358296656804145e-05
0.31275,1.6899700173613535e-06
0.313,-1.2801461906966862e-06
0.31325,7.357072982008796e-06
0.3135,2.7458615059982675e-05
0.31375,5.604631674733921e-05
0.314,8.868189905922896e-05
0.31425,0.00012078719634380647
0.3145,0.00014690725263116492
0.31475,0.00016353289278053183
0.315,0.00016878693490872466
0.31525,0.00016300820196544255
0.3155,0.00014763135419017722
0.31575,0.00012665884672483684
0.316,0.00010445043458539866
0.31625,8.4139061560956e-05
0.3165,6.987376782972539e-05
0.31675,6.321579465628749e-05
0.317,6.436189315618927e-05
0.31725,7.23697333442423e-05
0.3175,8.4442065354146e-05
0.31775,9.778542250283002e-05
0.318,0.00010821512833956397
0.31825,0.00011406249419897129
0.3185,0.00011221111926458437
0.31875,0.0001024496031278931
0.319,8.594024086049772e-05
0.31925,6.536228087121302e-05
0.3195,4.370271107801088e-05
0.31975,2.4078184542507112e-05
0.32,9.18398041309301e-06
0.32025,3.943216633004442e-07
0.3205,-2.592041568672151e-06
0.32075,-9.831768052615206e-07
0.321,2.9940780752946705e-06
0.32125,7.508959014794545e-06
0.3215,1.1087900616694092e-05
0.32175,1.3530251283169776e-05
0.322,1.4885643826208342e-05
0.32225,1.5961345617774694e-05
0.3225,1.708287371285092e-05
0.32275,1.7926874916753403e-05
0.323,1.6601018447261425e-05
0.32325,1.0626485575084213e-05
0.3235,-1.5251378774652154e-06
0.32375,-1.9094109352925516e-05
0.324,-3.999438651690867e-05
0.32425,-5.880330760344718e-05
0.3245,-6.822180587449514e-05
0.32475,-5.852701928539465e-05
0.325,-2.288797563643382e-05
0.32525,4.372776010136436e-05
0.3255,0.00013793648123517366
0.32575,0.00025113507431285496
0.326,0.000367339517295798
0.32625,0.0004687244024957377
0.3265,0.0005309157997340393
0.32675,0.0005399873145547397
0.327,0.0004962810951096823
0.32725,0.00041040958746367843
0.3275,0.0002960866392234138
0.32775,0.00016902852872803127
0.328,5.154086292891972e-05
0.32825,-3.987654529842961e-05
0.3285,-9.71318678996043e-05
0.32875,-0.00012220279057688807
0.329,-0.00011959260023338852
0.32925,-9.843186108878598e-05
0.3295,-6.800715188884262e-05
0.32975,-3.7457333850264386e-05
0.33,-1.4053961417988682e-05
0.33025,-8.587525755444522e-07
0.3305,2.7961537734280485e-06
0.33075,-1.299715946977039e-06
0.331,-9.112125135974894e-06
0.33125,-1.8073800087576227e-05
0.3315,-2.4971731954632144e-05
0.33175,-2.84657323297291e-05
0.332,-2.78107643912036e-05
0.33225,-2.372234715839826e-05
0.3325,-1.6393932106950744e-05
0.33275,-6.449024997055304e-06
0.333,5.81813195687172e-06
0.33325,1.9417927316275553e-05
0.3335,3.341921055472651e-05
0.33375,4.59917004059415e-05
0.334,5.568376345534314e-05
0.33425,6.086675448094306e-05
0.3345,6.10501304633726e-05
0.33475,5.615235085810599e-05
0.335,4.762083292444225e-05
0.33525,3.72697562891772e-05
0.3355,2.7806459588939213e-05
0.33575,2.081641809402509e-05
0.336,1.8744862102023746e-05
0.33625,2.235624784427873e-05
0.3365,3.134527050685428e-05
0.33675,4.5454818820797226e-05
0.337,6.306676145228771e-05
0.33725,8.278073739075301e-05
0.3375,0.0001022904499403603
0.33775,0.00012004598833085241
0.338,0.00013437422648322636
0.33825,0.00014414278575043424
0.3385,0.00014859846024229512
0.33875,0.00014740854177009612
0.339,0.00014216322388120503
0.33925,0.00013437110816334218
0.3395,0.00012649432426267747
0.33975,0.00012082018439650601
0.34,0.00012019412318141552
0.34025,0.00012492785746651169
0.3405,0.0001361684905365577
0.34075,0.00015249627142355416
0.341,0.00017170447488988047
0.34125,0.00019108174132506433
0.3415,0.00020753127601171696
0.34175,0.000218867320807346
0.342,0.00022377941155173143
0.34225,0.00022202022826499135
0.3425,0.00021456038448116151
0.34275,0.00020259648982242132
0.343,0.00018833466923460942
0.34325,0.00017414946862866654
0.3435,0.00016098002128535474
0.34375,0.0001507970139204622
0.344,0.0001435664908498119
0.34425,0.00013993743078959331
0.3445,0.00013993155357653562
0.34475,0.00014223162284517747
0.345,0.0001461660879678132
0.34525,0.00014988034252713154
0.3455,0.0001530769004794699
0.34575,0.00015273942930279382
0.346,0.0001487086586592221
0.34625,0.00014007394098643095
0.3465,0.00012720909997188283
0.34675,0.00011086554846294761
0.347,9.265350781714075e-05
0.34725,7.501075088095832e-05
0.3475,5.850985647708617e-05
0.34775,4.5730958444025755e-05
0.348,3.700984401124148e-05
0.34825,3.235635640484925e-05
0.3485,3.1614425537072253e-05
0.34875,3.377325665785993e-05
0.349,3.77541611620021e-05
0.34925,4.228408704668894e-05
0.3495,4.621430675303761e-05
0.34975,4.865336171586749e-05
0.35,4.8771206333632415e-05
0.35025,4.6078441490833375e-05
0.3505,4.041078826125653e-05
0.35075,3.193110830051649e-05
0.351,2.1368757870457982e-05
0.35125,9.831116295964676e-06
0.3515,-1.3006930097168733e-06
0.35175,-1.0491139054901923e-05
0.352,-1.6406514641718657e-05
0.35225,-1.8212891994061023e-05
0.3525,-1.571441856945175e-05
0.35275,-9.519310265839328e-06
0.353,-7.636415828055789e-07
0.35325,8.904572616532868e-06
0.3535,1.784883257942392e-05
0.35375,2.4606823210492342e-05
0.354,2.8247439924088317e-05
0.35425,2.8274018879805363e-05
0.3545,2.494731220687903e-05
0.35475,1.8818127279438225e-05
0.355,1.0856105786145071e-05
0.35525,2.06534280911622e-06
0.3555,-6.404287635833133e-06
0.35575,-1.3572808785112977e-05
0.356,-1.847422409083637e-05
0.35625,-2.0499811836257773e-05
0.3565,-1.914869779171568e-05
0.35675,-1.4512515793108178e-05
0.357,-7.005361233817958e-06
0.35725,2.4599406692704114e-06
0.3575,1.2602334140827057e-05
0.35775,2.1934421964710606e-05
0.358,2.8947037281808113e-05
0.35825,3.2500695298681576e-05
0.3585,3.2026772664489026e-05
0.35875,2.7416042466812544e-05
0.359,1.9312797588248137e-05
0.35925,8.900236310555514e-06
0.3595,-2.25993993558922e-06
0.35975,-1.2518705896806958e-05
0.36,-2.0363532469437684e-05
0.36025,-2.454000777001543e-05
0.3605,-2.4311033961882167e-05
0.36075,-1.9409027325985814e-05
0.361,-1.0315244950592342e-05
0.36125,1.8686571140842917e-06
0.3615,1.5633644976128242e-05
0.36175,2.8947420298219275e-05
0.362,3.97565976934357e-05
0.36225,4.613223404978137e-05
0.3625,4.677879786631836e-05
0.36275,4.1193561062828016e-05
0.363,3.0020799072769332e-05
0.36325,1.49050381934929e-05
0.3635,-1.6234926369506865e-06
0.36375,-1.6557596386157636e-05
0.364,-2.6972436995173783e-05
0.36425,-3.064717335656297e-05
0.3645,-2.6332144632940174e-05
0.36475,-1.4219312622505705e-05
0.365,4.143669611689841e-06
0.36525,2.6145154746731452e-05
0.3655,4.848935944204682e-05
0.36575,6.777995863360155e-05
0.366,8.135666582913531e-05
0.36625,8.74121223904656e-05
0.3665,8.575348942999552e-05
0.36675,7.728638451296612e-05
0.367,6.439360761271968e-05
0.36725,5.053021320081133e-05
0.3675,3.8437727657588425e-05
0.36775,3.1805243469082905e-05
0.368,3.2804501071656457e-05
0.36825,4.257957456069265e-05
0.3685,6.012064190185469e-05
0.36875,8.380464801548596e-05
0.369,0.00011084965421850882
0.36925,0.00013688024504381828
0.3695,0.0001588477471384481
0.36975,0.00017321567362514262
0.37,0.00017827072436072354
0.37025,0.00017347943568589335
0.3705,0.00016022512496167236
0.37075,0.00014047652290867835
0.371,0.00011738918617218644
0.37125,9.451609915615704e-05
0.3715,7.560005691829435e-05
0.37175,6.273152554648686e-05
0.372,5.726739817913785e-05
0.37225,5.874291604282908e-05
0.3725,6.586474333193355e-05
0.37275,7.585672441567976e-05
0.373,8.574939287840283e-05
0.37325,9.31890497929944e-05
0.3735,9.627413487549976e-05
0.37375,9.334679314685276e-05
0.374,8.478068178300065e-05
0.37425,7.170942172890476e-05
0.3745,5.546021679990769e-05
0.37475,3.833154480044718e-05
0.375,2.1809169816213823e-05
0.37525,7.336104828931975e-06
0.3755,-4.3193227251899e-06
0.37575,-1.2584380427899569e-05
0.376,-1.7383391667728845e-05
0.37625,-1.848949032914886e-05
0.3765,-1.6002574755561084e-05
0.37675,-9.862686304787104e-06
0.377,-7.582132630060911e-07
0.37725,9.923872674448844e-06
0.3775,1.9662301746743127e-05
0.37775,2.576902761487099e-05
0.378,2.5142987878391473e-05
0.37825,1.608233605239509e-05
0.3785,-1.8057955123434964e-06
0.37875,-2.5302528609150145e-05
0.379,-4.890474624859661e-05
0.37925,-6.430573560363028e-05
0.3795,-6.179987508284833e-05
0.37975,-3.293593448065395e-05
0.38,2.5965874247489343e-05
0.38025,0.00011421296338464022
0.3805,0.0002247914900475376
0.38075,0.00034434121459781404
0.381,0.0004500577392529725
0.38125,0.000522093142043268
0.3815,0.0005503072152317186
0.38175,0.0005252408318439114
0.382,0.00045071052282134926
0.38225,0.0003420251635472566
0.3825,0.00021797072255000052
0.38275,9.67064356876149e-05
0.383,-5.5454692458088765e-06
0.38325,-7.961552935788511e-05
0.3835,-0.00012201198948715939
0.38375,-0.0001359344653199211
0.384,-0.00012702198981201672
0.38425,-0.00010427918953695724
0.3845,-7.748746744422856e-05
0.38475,-5.3039591771214176e-05
0.385,-3.4227676147999694e-05
0.38525,-2.1601727484723475e-05
0.3855,-1.4522355065787101e-05
0.38575,-1.1293270012769442e-05
0.386,-1.0471555258136508e-05
0.38625,-1.1552251845258071e-05
0.3865,-1.3572418159892863e-05
0.38675,-1.630338271664087e-05
0.387,-1.9748636330036685e-05
0.38725,-2.3279689819420784e-05
0.3875,-2.5505483421639823e-05
0.38775,-2.4775352543885096e-05
0.388,-1.9637570226753425e-05
0.38825,-9.648821453235186e-06
0.3885,4.488701006841943e-06
0.38875,2.0705863499960194e-05
0.389,3.6322213065724524e-05
0.38925,4.849717878200409e-05
0.3895,5.512306154734827e-05
0.38975,5.519012872514846e-05
0.39,4.921763977013348e-05
0.39025,3.8873149836924036e-05
0.3905,2.6700097535945532e-05
0.39075,1.5489504493508513e-05
0.391,7.847410607335013e-06
0.39125,5.580208265935611e-06
0.3915,9.894814579268931e-06
0.39175,2.111583784492588e-05
0.392,3.806316787203593e-05
0.39225,5.951096914341356e-05
0.3925,8.329097538686389e-05
0.39275,0.00010578151845226733
0.393,0.00012511806815908926
0.39325,0.00013825532197201746
0.3935,0.00014427536488145274
0.39375,0.0001422556198414009
0.394,0.00013399910004087965
0.39425,0.00012208343014354377
0.3945,0.00010998262913947174
0.39475,0.00010176913029610109
0.395,0.00010003491489183803
0.39525,0.00010707368477609185
0.3955,0.0001221162748514818
0.39575,0.0001428805076885658
0.396,0.00016645569361806316
0.39625,0.00018830452479103523
0.3965,0.00020504531233812607
0.39675,0.00021402090331958817
0.397,0.00021521444507112132
0.39725,0.00020871023974899783
0.3975,0.0001971147640971166
0.39775,0.0001828076662345391
0.398,0.00016870361925497288
0.39825,0.00015686286057428248
0.3985,0.00014856567527881613
0.39875,0.00014441475264843646
0.399,0.00014360795030370245
0.39925,0.00014629731211215007
0.3995,0.0001501097291921376
0.39975,0.00015396764996669394
0.4,0.00015593968444880933
0.40025,0.00015589748013975608
0.4005,0.00015156133712881427
0.40075,0.0001436464617182975
0.401,0.0001316147890089669
0.40125,0.00011685408895030268
0.4015,0.00010096193799292525
0.40175,8.560385873586425e-05
0.402,7.296744876203606e-05
0.40225,6.33670929275625e-05
0.4025,5.780936454503542e-05
0.40275,5.5117820336719006e-05
0.403,5.4179850864045695e-05
0.40325,5.343069295578329e-05
0.4035,5.1462435676838705e-05
0.40375,4.727790676160521e-05
0.404,4.0916333315233256e-05
0.40425,3.3176424941736735e-05
0.4045,2.5257918451239893e-05
0.40475,1.824546990547226e-05
0.405,1.2987896063713946e-05
0.40525,9.677514898318697e-06
0.4055,7.882360050112698e-06
0.40575,6.8842483847661365e-06
0.406,5.837994183923819e-06
0.40625,4.188652657094021e-06
0.4065,1.7584729143663654e-06
0.40675,-1.2371082957305868e-06
0.407,-4.352963802780282e-06
0.40725,-7.0908402974270925e-06
0.4075,-9.200665288331824e-06
0.40775,-1.0668332840273758e-05
0.408,-1.1722046398915823e-05
0.40825,-1.2585227162602145e-05
0.4085,-1.3444406372964598e-05
0.40875,-1.4238197960730751e-05
0.409,-1.4739562336106427e-05
0.40925,-1.4636916894467039e-05
0.4095,-1.3716627609622484e-05
0.40975,-1.2159017759138012e-05
0.41,-1.0261469510661551e-05
0.41025,-8.673047293470208e-06
0.4105,-8.013914874999598e-06
0.41075,-8.690089208837184e-06
0.411,-1.0645485273327345e-05
0.41125,-1.3580444623688482e-05
0.4115,-1.679096088577348e-05
0.41175,-1.963246843163802e-05
0.412,-2.1571873666442225e-05
0.41225,-2.2449781547301866e-05
0.4125,-2.2437315319638983e-05
0.41275,-2.182664756390358e-05
0.413,-2.0934361961850158e-05
0.41325,-1.9896142646223074e-05
0.4135,-1.855965446398162e-05
0.41375,-1.659688181942188e-05
0.414,-1.3807875009334302e-05
0.41425,-1.0266965453767154e-05
0.4145,-6.452137326175891e-06
0.41475,-3.399360704332031e-06
0.415,-2.199774576931354e-06
0.41525,-3.87706217638722e-06
0.4155,-8.729155213643816e-06
0.41575,-1.634525707632895e-05
0.416,-2.5372217888390148e-05
0.41625,-3.38971611986028e-05
0.4165,-3.978462893948714e-05
0.41675,-4.138502489369082e-05
0.417,-3.7944578387707264e-05
0.41725,-2.98441949317541e-05
0.4175,-1.8483573190923083e-05
0.41775,-6.092637215812457e-06
0.418,5.045797763984554e-06
0.41825,1.2677070502323368e-05
0.4185,1.5465895353024728e-05
0.41875,1.2834918615105584e-05
0.419,5.308046905309914e-06
0.41925,-5.818455700231444e-06
0.4195,-1.8668071680116278e-05
0.41975,-3.103568015587424e-05
0.42,-4.0754507040135426e-05
0.42025,-4.5853004341746956e-05
0.4205,-4.485703776075841e-05
0.42075,-3.7134979002264626e-05
0.421,-2.309185060066003e-05
0.42125,-4.2577257989769124e-06
0.4215,1.6886770228032224e-05
0.42175,3.7046439155830676e-05
0.422,5.3003475642068037e-05
0.42225,6.198370281363684e-05
0.4225,6.273565879323966e-05
0.42275,5.568021841410542e-05
0.423,4.3107222337735475e-05
0.42325,2.8848354170866587e-05
0.4235,1.6713550735966306e-05
0.42375,1.0371593699834344e-05
0.424,1.2879670536972431e-05
0.42425,2.4673150848418215e-05
0.4245,4.468947816559809e-05
0.42475,6.97176445237607e-05
0.425,9.618024599509099e-05
0.42525,0.00011983121206874749
0.4255,0.0001367541154508125
0.42575,0.00014563419888513238
0.426,0.0001451279179091719
0.42625,0.000136380692552283
0.4265,0.00012140957503621877
0.42675,0.00010228321678546168
0.427,8.198247747675222e-05
0.42725,6.289596678112918e-05
0.4275,4.738031032646702e-05
0.42775,3.7000103522288125e-05
0.428,3.3121263805465066e-05
0.42825,3.5181079294335774e-05
0.4285,4.2265148477747976e-05
0.42875,5.1568580697857616e-05
0.429,6.0548631864681255e-05
0.42925,6.658374400383485e-05
0.4295,6.693132923749317e-05
0.42975,6.0492424538363844e-05
0.43,4.7795553441184976e-05
0.43025,3.0459572996022874e-05
0.4305,1.134082317985529e-05
0.43075,-6.6371484162607166e-06
0.431,-2.0957832120999157e-05
0.43125,-3.0414305033494947e-05
0.4315,-3.4761464163063984e-05
0.43175,-3.534207190977276e-05
0.432,-3.377957915950368e-05
0.43225,-3.1753253431988705e-05
0.4325,-2.9948832708283507e-05
0.43275,-2.842449622350932e-05
0.433,-2.6525045906387457e-05
0.43325,-2.3848359396754906e-05
0.4335,-2.0714679686036398e-05
0.43375,-1.8936812699559877e-05
0.434,-2.1309809862617153e-05
0.43425,-2.9688203182628584e-05
0.4345,-4.355687917442235e-05
0.43475,-6.179054064366213e-05
0.435,-8.043745951162901e-05
0.43525,-9.294514163627862e-05
0.4355,-9.137647270172537e-05
0.43575,-6.789502686406322e-05
0.436,-1.4669990962475823e-05
0.43625,6.780474442358117e-05
0.4365,0.00017244009000948836
0.43675,0.00028619294987249414
0.437,0.0003942289574743485
0.43725,0.00047780219377498054
0.4375,0.0005224643807354506
0.43775,0.0005130832258821886
0.438,0.0004516624660710083
0.43825,0.00035497199941247724
0.4385,0.000238239652412758
0.43875,0.00011861760153071943
0.439,1.060942539214744e-05
0.43925,-7.161195219198489e-05
0.4395,-0.0001223124613016506
0.43975,-0.0001431756907011782
0.44,-0.0001404761277985992
0.44025,-0.00012174627271065969
0.4405,-9.503832934173784e-05
0.44075,-6.714026826724532e-05
0.441,-4.512395464771308e-05
0.44125,-3.132072339759151e-05
0.4415,-2.57758787284811e-05
0.44175,-2.7052266284191696e-05
0.442,-3.229422277564058e-05
0.44225,-3.909820944473659e-05
0.4425,-4.5618640195659054e-05
0.44275,-4.982210420054244e-05
0.443,-5.0774588819409645e-05
0.44325,-4.8414887550620056e-05
0.4435,-4.327086506658327e-05
0.44375,-3.552785904779245e-05
0.444,-2.5797272140432263e-05
0.44425,-1.4601260707981e-05
0.4445,-2.96687192060378e-06
0.44475,8.152761914371486e-06
0.445,1.732486323547083e-05
0.44525,2.353880619679008e-05
0.4455,2.5863077609877495e-05
0.44575,2.4124208053684183e-05
0.446,1.8627808935928194e-05
0.44625,1.0546779733073092e-05
0.4465,1.4923307471596504e-06
0.44675,-6.42496126630655e-06
0.447,-1.1273694905704653e-05
0.44725,-1.1315297810069849e-05
0.4475,-5.5997082979724996e-06
0.44775,6.105922688924615e-06
0.448,2.2691202535810477e-05
0.44825,4.2719795923823935e-05
0.4485,6.389974282870761e-05
0.44875,8.384367713530287e-05
0.449,9.998116233164039e-05
0.44925,0.00011048277848798036
0.4495,0.0001151563575494024
0.44975,0.0001138285116111306
0.45,0.00010815291828443447
0.45025,0.00010037399240302366
0.4505,9.217669224672302e-05
0.45075,8.710054169917749e-05
0.451,8.607137589575161e-05
0.45125,9.099528063078485e-05
0.4515,0.00010178180568238365
0.45175,0.00011723941171424681
0.452,0.00013505767993416207
0.45225,0.00015397692060532462
0.4525,0.00017039783880834809
0.45275,0.000182476869625382
0.453,0.00018830667018777567
0.45325,0.0001874093020198206
0.4535,0.00018055903080501314
0.45375,0.0001681985770447258
0.454,0.0001532729494049881
0.45425,0.00013770967204389432
0.4545,0.000123633096633717
0.45475,0.00011324583007370228
0.455,0.0001069511897384879
0.45525,0.00010580621628245612
0.4555,0.00010782446009975427
0.45575,0.00011199666041066968
0.456,0.00011674055526382653
0.45625,0.00011969062993902114
0.4565,0.00011998071300624316
0.45675,0.00011639967272608707
0.457,0.00010848827522425534
0.45725,9.727106480737908e-05
0.4575,8.363857728203991e-05
0.45775,6.798797422643861e-05
0.458,5.213507724386416e-05
0.45825,3.759703779495502e-05
0.4585,2.4703870247523702e-05
0.45875,1.4391750685244875e-05
0.459,7.221483283947459e-06
0.45925,3.105979602859418e-06
0.4595,1.6851765069881204e-06
0.45975,2.269152556349255e-06
0.46,3.9759613896011005e-06
0.46025,5.722720843178543e-06
0.4605,6.596822917178834e-06
0.46075,5.785207649630219e-06
0.461,2.99186330995213e-06
0.46125,-1.8157180993386719e-06
0.4615,-8.311259325462157e-06
0.46175,-1.577659842341143e-05
0.462,-2.3532054259111297e-05
0.46225,-3.083538628782064e-05
0.4625,-3.711785460720985e-05
0.46275,-4.201348437127467e-05
0.463,-4.517884901694985e-05
0.46325,-4.66162579982149e-05
0.4635,-4.6272224023520675e-05
0.46375,-4.4284724973206276e-05
0.464,-4.08982974928377e-05
0.46425,-3.6534637862833705e-05
0.4645,-3.1838227089419e-05
0.46475,-2.7449056077271537e-05
0.465,-2.4200112457373246e-05
0.46525,-2.2765418333514083e-05
0.4655,-2.3529468963377335e-05
0.46575,-2.6550169062128864e-05
0.466,-3.140469888495665e-05
0.46625,-3.734808279116625e-05
0.4665,-4.344078461587359e-05
0.46675,-4.86969480742411e-05
0.467,-5.233255094702364e-05
0.46725,-5.387938038405735e-05
0.4675,-5.322651197936664e-05
0.46775,-5.065439651558106e-05
0.468,-4.655619506963107e-05
0.46825,-4.1548330995115176e-05
0.4685,-3.623044994431529e-05
0.46875,-3.1139709467947865e-05
0.469,-2.6799697744925042e-05
0.46925,-2.3768607147053397e-05
0.4695,-2.241752165621335e-05
0.46975,-2.3053433620424036e-05
0.47,-2.5895753620531728e-05
0.47025,-3.0800378529622804e-05
0.4705,-3.7190769905440726e-05
0.47075,-4.4233012035792415e-05
0.471,-5.081097337705647e-05
0.47125,-5.5734925936734145e-05
0.4715,-5.8007576534588796e-05
0.47175,-5.700370177406149e-05
0.472,-5.2714551558485113e-05
0.47225,-4.5742393404574335e-05
0.4725,-3.7110706493813974e-05
0.47275,-2.8176826190551295e-05
0.473,-2.0367070384458773e-05
0.47325,-1.4907837368395587e-05
0.4735,-1.2561946839872298e-05
0.47375,-1.3674144965927923e-05
0.474,-1.803656121113004e-05
0.47425,-2.5084483729715415e-05
0.4745,-3.378239120003018e-05
0.47475,-4.290216981293285e-05
0.475,-5.101313932657444e-05
0.47525,-5.6689510871862967e-05
0.4755,-5.867982836976846e-05
0.47575,-5.6164869242020525e-05
0.476,-4.890762725846619e-05
0.47625,-3.733840387419583e-05
0.4765,-2.2860138041994774e-05
0.47675,-7.298272634495328e-06
0.477,7.0300969411998045e-06
0.47725,1.803608981457261e-05
0.4775,2.411616375295423e-05
0.47775,2.4724700499546287e-05
0.478,2.0349509940650935e-05
0.47825,1.2633110443891463e-05
0.4785,4.020027827123098e-06
0.47875,-2.832474252325672e-06
0.479,-5.476451026434045e-06
0.47925,-2.2969320720183474e-06
0.4795,7.184860987179929e-06
0.47975,2.231996362434183e-05
0.48,4.11348557054227e-05
0.48025,6.201705735481564e-05
0.4805,8.157947271106232e-05
0.48075,9.750216013544886e-05
0.481,0.00010853423825884394
0.48125,0.00011283817814758672
0.4815,0.00011047395912677176
0.48175,0.00010229699670833876
0.482,8.953004278551579e-05
0.48225,7.415808709344542e-05
0.4825,5.780488012464608e-05
0.48275,4.306451676422678e-05
0.483,3.2014102567622156e-05
0.48325,2.509767590639077e-05
0.4835,2.3076662666305354e-05
0.48375,2.5361619927811098e-05
0.484,3.0170735924751284e-05
0.48425,3.5632491432894026e-05
0.4845,3.947078643206646e-05
0.48475,3.9917326842353676e-05
0.485,3.5851007961801336e-05
0.48525,2.7410846356807175e-05
0.4855,1.543206759031715e-05
0.48575,1.5808047127831263e-06
0.486,-1.245667539758346e-05
0.48625,-2.5137574946288753e-05
0.4865,-3.568185632887253e-05
0.48675,-4.374553102396947e-05
0.487,-4.9756436817135356e-05
0.48725,-5.3902950062424816e-05
0.4875,-5.6526127317012e-05
0.48775,-5.75198640466468e-05
0.488,-5.699563154699881e-05
0.48825,-5.378713398585974e-05
0.4885,-4.8726993401071995e-05
0.48875,-4.1958608903793516e-05
0.489,-3.580213277549629e-05
0.48925,-3.367031074623064e-05
0.4895,-3.881424613675615e-05
0.48975,-5.2217098449818425e-05
0.49,-7.180251488838986e-05
0.49025,-9.318369132686753e-05
0.4905,-0.00011053471898368113
0.49075,-0.00011667698565532863
0.491,-0.00010290362156018491
0.49125,-6.297061498481222e-05
0.4915,6.04286075030536e-06
0.49175,0.00010627437831782366
0.492,0.00022501494907978327
0.49225,0.00033998200502748636
0.4925,0.0004328967624365191
0.49275,0.0004865545230053023
0.493,0.0004939268170158577
0.49325,0.0004523531235516806
0.4935,0.0003664792359890399
0.49375,0.00025147128411687734
0.494,0.00012861940753968807
0.49425,1.6065128773830198e-05
0.4945,-7.313696352837757e-05
0.49475,-0.00013185534426607252
0.495,-0.0001585400418754342
0.49525,-0.0001578705202596152
0.4955,-0.00013769714319640503
0.49575,-0.00010817389842793183
0.496,-7.927819858525865e-05
0.49625,-5.707080413370467e-05
0.4965,-4.3187677471595985e-05
0.49675,-3.77933465416028e-05
0.497,-3.867269507839776e-05
0.49725,-4.233093052705423e-05
0.4975,-4.666532560870135e-05
0.49775,-4.970401753532901e-05
0.498,-5.00906901545816e-05
0.49825,-4.8482071350815624e-05
0.4985,-4.6128580634387714e-05
0.49875,-4.3673935541854096e-05
0.499,-4.0954864482507004e-05
0.49925,-3.728158364638382e-05
0.4995,-3.169169708331917e-05
0.49975,-2.347994144969649e-05
0.5,-1.2881515122929691e-05
0.50025,-9.014697222525031e-07
0.5005,1.0728276440564048e-05
0.50075,1.994915966190414e-05
0.501,2.5011212214047663e-05
0.50125,2.498142125986277e-05
0.5015,2.000927249697212e-05
0.50175,1.1357362955010395e-05
0.502,1.2577309357378177e-06
0.50225,-7.829224263314068e-06
0.5025,-1.333975368303599e-05
0.50275,-1.3436440270179499e-05
0.503,-6.956757202816349e-06
0.50325,6.04977115558035e-06
0.5035,2.4968265083780883e-05
0.50375,4.751610282437697e-05
0.504,7.205465306555488e-05
0.50425,9.505031428327644e-05
0.5045,0.0001138834443033011
0.50475,0.00012691851282458066
0.505,0.00013165325583051912
0.50525,0.0001280644152300058
0.5055,0.00011757810869742022
0.50575,0.00010346656397417323
0.506,8.839122915539583e-05
0.50625,7.736969653089016e-05
0.5065,7.329068068689545e-05
0.50675,7.86901110987704e-05
0.507,9.355542434963744e-05
0.50725,0.00011641212255503793
0.5075,0.00014336995933654593
0.50775,0.00017010391931815655
0.508,0.00019139153333835136
0.50825,0.00020349976638220216
0.5085,0.00020510174768168633
0.50875,0.00019558684772807446
0.509,0.0001766784728378703
0.50925,0.00015270756559366085
0.5095,0.00012723022640821193
0.50975,0.00010419273912742153
0.51,8.732780252944993e-05
0.51025,7.796677176310892e-05
0.5105,7.665998341378567e-05
0.51075,8.245821617150899e-05
0.511,9.300654169828043e-05
0.51125,0.00010585147486575509
0.5115,0.00011750324336640091
0.51175,0.00012486148796937369
0.512,0.00012588028505825828
0.51225,0.00011937119389029903
0.5125,0.00010496594208454717
0.51275,8.449090896610094e-05
0.513,5.941282542414047e-05
0.51325,3.395982646266193e-05
0.5135,1.0850547157850013e-05
0.51375,-6.820374511973864e-06
0.514,-1.6800862743929674e-05
0.51425,-1.895829496048941e-05
0.5145,-1.4104655505596225e-05
0.51475,-4.7003803985902746e-06
0.515,6.4808373709624095e-06
0.51525,1.6303322680234986e-05
0.5155,2.2554669819905793e-05
0.51575,2.3733921937089836e-05
0.516,1.983717960605558e-05
0.51625,1.159528597487534e-05
0.5165,4.773419921941766e-07
0.51675,-1.1922124421232473e-05
0.517,-2.4005069745600677e-05
0.51725,-3.474305777884814e-05
0.5175,-4.317780388493835e-05
0.51775,-4.8971911042938785e-05
0.518,-5.165962265642414e-05
0.51825,-5.113209305142345e-05
0.5185,-4.738891092292028e-05
0.51875,-4.0872596692776824e-05
0.519,-3.224422792874754e-05
0.51925,-2.2774806213246403e-05
0.5195,-1.390719990821074e-05
0.51975,-7.2596294474622205e-06
0.52,-4.0357013034420355e-06
0.52025,-4.937529369732452e-06
0.5205,-9.843291360787715e-06
0.52075,-1.797297384309519e-05
0.521,-2.7823055399005063e-05
0.52125,-3.787215628849508e-05
0.5215,-4.650085471746821e-05
0.52175,-5.252344514909078e-05
0.522,-5.519208943883897e-05
0.52225,-5.425915893996786e-05
0.5225,-4.977659896596258e-05
0.52275,-4.2338681262922e-05
0.523,-3.2522311246662535e-05
0.52325,-2.147825994001856e-05
0.5235,-1.0464684344286253e-05
0.52375,-1.0871943689310297e-06
0.524,4.986179792002765e-06
0.52425,6.370952617426291e-06
0.5245,2.1959089668018676e-06
0.52475,-7.33445008528025e-06
0.525,-2.094907400073644e-05
0.52525,-3.627062621243356e-05
0.5255,-5.0311694745425286e-05
0.52575,-6.0062551916136574e-05
0.526,-6.316101252768181e-05
0.52625,-5.8716163371215487e-05
0.5265,-4.717456611923309e-05
0.52675,-3.0705431996354275e-05
0.527,-1.2398504059734043e-05
0.52725,4.165907762117164e-06
0.5275,1.6074137264463053e-05
0.52775,2.1173660153164933e-05
0.528,1.8843878544681366e-05
0.52825,9.839610645658667e-06
0.5285,-3.988380896218759e-06
0.52875,-1.9979353400729134e-05
0.529,-3.5304752237963623e-05
0.52925,-4.738663553191692e-05
0.5295,-5.418880373743627e-05
0.52975,-5.453882205269852e-05
0.53,-4.80476173173416e-05
0.53025,-3.541708467865894e-05
0.5305,-1.826042975953117e-05
0.53075,9.639164322080447e-07
0.531,1.9407547954641465e-05
0.53125,3.409946359467015e-05
0.5315,4.2733853790868936e-05
0.53175,4.4052789087899315e-05
0.532,3.829659743368881e-05
0.53225,2.7405090452617313e-05
0.5325,1.4478717872021413e-05
0.53275,3.343465049578056e-06
0.533,-2.4068060345822674e-06
0.53325,-6.164586211337963e-07
0.5335,9.75914684328861e-06
0.53375,2.7282060106151438e-05
0.534,4.9439167049137176e-05
0.53425,7.253857127731043e-05
0.5345,9.315398855828992e-05
0.53475,0.00010884709967526934
0.535,0.00011761369485220233
0.53525,0.00011971079118089599
0.5355,0.00011666682441464153
0.53575,0.00010946087547099602
0.536,0.00010035284005613101
0.53625,9.110857721410126e-05
0.5365,8.245333150443267e-05
0.53675,7.52286126449675e-05
0.537,6.978176464354324e-05
0.53725,6.614822356071142e-05
0.5375,6.469015010796666e-05
0.53775,6.393178573449672e-05
0.538,6.407874256695617e-05
0.53825,6.396187138213647e-05
0.5385,6.210884218002053e-05
0.53875,5.8310404479382756e-05
0.539,5.197277935291369e-05
0.53925,4.318767387926392e-05
0.5395,3.298982170319449e-05
0.53975,2.2817244624593394e-05
0.54,1.4228514965602504e-05
0.54025,8.213998945732829e-06
0.5405,4.9611629696294995e-06
0.54075,3.450003246150328e-06
0.541,2.0425635327351352e-06
0.54125,-1.0414562080698885e-06
0.5415,-6.787165942688492e-06
0.54175,-1.502091532372548e-05
0.542,-2.406535843949227e-05
0.54225,-3.1477919685525215e-05
0.5425,-3.461549623458019e-05
0.54275,-3.2309957494045624e-05
0.543,-2.5255590355476094e-05
0.54325,-1.636686824464078e-05
0.5435,-9.584835839943552e-06
0.54375,-9.3085182924598e-06
0.544,-1.802087645228855e-05
0.54425,-3.4812217785359006e-05
0.5445,-5.495800401218066e-05
0.54475,-7.1017749257558e-05
0.545,-7.2082514122818e-05
0.54525,-4.8329255311423544e-05
0.5455,6.120449540760291e-06
0.54575,9.040785756823004e-05
0.546,0.0001969502875330845
0.54625,0.0003120839122445704
0.5465,0.00041685348265210656
0.54675,0.000488710318863834
0.547,0.0005158673690760546
0.54725,0.0004911110641415682
0.5475,0.0004156263699433073
0.54775,0.00030693966712599545
0.548,0.0001855529147273442
0.54825,7.070463995397503e-05
0.5485,-2.3401677091517817e-05
0.54875,-8.896807183122824e-05
0.549,-0.00012339815381003674
0.54925,-0.00013104416461533753
0.5495,-0.00011818762007943608
0.54975,-9.500833150601445e-05
0.55,-6.9748269769534e-05
0.55025,-4.8559755478341005e-05
0.5505,-3.5335435551905075e-05
0.55075,-2.9659036059347926e-05
0.551,-3.028489590167108e-05
0.55125,-3.345860482430958e-05
0.5515,-3.6545656917443595e-05
0.55175,-3.713466694750032e-05
0.552,-3.430243303830614e-05
0.55225,-2.8803567558964834e-05
0.5525,-2.1881744604092183e-05
0.55275,-1.4998769133516724e-05
0.553,-9.062057731464446e-06
0.55325,-4.452765171691196e-06
0.5535,-8.937565784467161e-07
0.55375,2.2526087829523434e-06
0.554,5.659070279016295e-06
0.55425,9.672290243487093e-06
0.5545,1.441049332165499e-05
0.55475,1.9571835876768178e-05
0.555,2.4495896578979108e-05
0.55525,2.838758748180034e-05
0.5555,3.0589141601773995e-05
0.55575,3.088646560312397e-05
0.556,2.9549543853831396e-05
0.55625,2.7411892660078338e-05
0.5565,2.5586253353391755e-05
0.55675,2.586530293160155e-05
0.557,2.8988035474115488e-05
0.55725,3.594483475330436e-05
0.5575,4.725728104906548e-05
0.55775,6.174583027393976e-05
0.558,7.919544445673554e-05
0.55825,9.669527067075112e-05
0.5585,0.00011341416058712087
0.55875,0.00012673486083194241
0.559,0.00013542498092938962
0.55925,0.00013926351454701506
0.5595,0.00013802247873670264
0.55975,0.0001333339502906828
0.56,0.00012713838664439874
0.56025,0.00012102597448472837
0.5605,0.00011747264446971314
0.56075,0.0001186095550375412
0.561,0.00012534348467917612
0.56125,0.00013796729615895046
0.5615,0.00015440626431760624
0.56175,0.00017330843135144382
0.562,0.00019152221396877088
0.56225,0.00020601393835046594
0.5625,0.00021417739807782897
0.56275,0.000214504869086392
0.563,0.00020627616426293754
0.56325,0.0001911258102677238
0.5635,0.00017109923723980267
0.56375,0.00015013244071644097
0.564,0.00013132059171365486
0.56425,0.00011727857121922651
0.5645,0.00011006322720075805
0.56475,0.00010994980431287154
0.565,0.0001156583887097085
0.56525,0.00012536001661348067
0.5655,0.00013530376558124174
0.56575,0.00014351640250372867
0.566,0.00014702347476615508
0.56625,0.00014384253814644742
0.5665,0.00013439778771130945
0.56675,0.0001188550146219991
0.567,9.873866402239756e-05
0.56725,7.659876378578354e-05
0.5675,5.479536023989078e-05
0.56775,3.5575803998085214e-05
0.568,2.2017848216364052e-05
0.56825,1.4221876869578377e-05
0.5685,1.3476102778922652e-05
0.56875,1.8853768016698866e-05
0.569,2.7927629381920088e-05
0.56925,3.8746912490979896e-05
0.5695,4.8346873099810706e-05
0.56975,5.427928022656266e-05
0.57,5.4823878295638e-05
0.57025,4.9420706711862226e-05
0.5705,3.8691328870319926e-05
0.57075,2.440939356481757e-05
0.571,8.9132783568165e-06
0.57125,-5.32554931193383e-06
0.5715,-1.620212531665447e-05
0.57175,-2.2474865457295912e-05
0.572,-2.380931941818488e-05
0.57225,-2.0733517481994338e-05
0.5725,-1.4345897728928625e-05
0.57275,-6.067198239011884e-06
0.573,2.7283624765718695e-06
0.57325,1.0840563898791722e-05
0.5735,1.737644575049199e-05
0.57375,2.1676613459045058e-05
0.574,2.3340661393614047e-05
0.57425,2.2160007565744046e-05
0.5745,1.8210030332304743e-05
0.57475,1.1867065390227545e-05
0.575,3.905481848194648e-06
0.57525,-4.586376224768004e-06
0.5755,-1.2292399251681981e-05
0.57575,-1.793171782607382e-05
0.576,-2.0498115285289855e-05
0.57625,-1.952121146141862e-05
0.5765,-1.5118082576640966e-05
0.57675,-8.012238314509239e-06
0.577,6.789747349060285e-07
0.57725,9.70062536152706e-06
0.5775,1.7861949466461715e-05
0.57775,2.420402610499224e-05
0.578,2.8115612142113282e-05
0.57825,2.9223703025905162e-05
0.5785,2.7415665963076644e-05
0.57875,2.2736687630341743e-05
0.579,1.5514378899335627e-05
0.57925,6.334103147609905e-06
0.5795,-3.6856733494570864e-06
0.57975,-1.3057679073733899e-05
0.58,-2.0053260320182866e-05
0.58025,-2.2912580342248267e-05
0.5805,-2.0474477398832116e-05
0.58075,-1.2438081324311504e-05
0.581,4.12226115475216e-07
0.58125,1.596942458466635e-05
0.5815,3.146830963445194e-05
0.58175,4.389016209803543e-05
0.582,5.0646915126853733e-05
0.58225,5.025330323876314e-05
0.5825,4.2706138856044326e-05
0.58275,2.9357040395659132e-05
0.583,1.2888472516775505e-05
0.58325,-3.6477320701022414e-06
0.5835,-1.705073887528528e-05
0.58375,-2.4870277930215786e-05
0.584,-2.5717201006969415e-05
0.58425,-1.9360107460616924e-05
0.5845,-6.674596917071467e-06
0.58475,1.0501129293082273e-05
0.585,2.9789020258115517e-05
0.58525,4.847912506352163e-05
0.5855,6.401072285514121e-05
0.58575,7.41437030199503e-05
0.586,7.758090816797867e-05
0.58625,7.40551853797408e-05
0.5865,6.467776144983852e-05
0.58675,5.145253820974042e-05
0.587,3.80914898271136e-05
0.58725,2.7961270327341026e-05
0.5875,2.4404384261867953e-05
0.58775,2.972216429482702e-05
0.588,4.4091557392491146e-05
0.58825,6.612373449953151e-05
0.5885,9.247190359858607e-05
0.58875,0.00011905782305698216
0.589,0.0001419492517331377
0.58925,0.0001575520815517682
0.5895,0.00016434693207063175
0.58975,0.0001621032506131585
0.59,0.00015305387767676685
0.59025,0.00013924472419543624
0.5905,0.00012401388413745085
0.59075,0.00011011862284346637
0.591,9.84786889015816e-05
0.59125,9.094017894584723e-05
0.5915,8.721613895736548e-05
0.59175,8.63309838797949e-05
0.592,8.851749252396984e-05
0.59225,9.166251679074227e-05
0.5925,9.514584442143593e-05
0.59275,9.715044837416366e-05
0.593,9.704151057093706e-05
0.59325,9.33858222433464e-05
0.5935,8.591983241411553e-05
0.59375,7.492043852195185e-05
0.594,6.143049523123802e-05
0.59425,4.7202294984262575e-05
0.5945,3.4615046098289736e-05
0.59475,2.4954664521901453e-05
0.595,1.9184822136566997e-05
0.59525,1.740516419782388e-05
0.5955,1.8219446359742956e-05
0.59575,1.8986731388501013e-05
0.596,1.755829767576994e-05
0.59625,1.3156759589538706e-05
0.5965,6.496500604773588e-06
0.59675,-3.082478283040131e-07
0.597,-4.763720151923764e-06
0.59725,-5.052875457805484e-06
0.5975,-1.110704954276634e-06
0.59775,5.003286416639601e-06
0.598,9.329821543071438e-06
0.59825,7.673839756913152e-06
0.5985,-3.647380325719223e-06
0.59875,-2.2858422754621153e-05
0.599,-4.226075924835947e-05
0.59925,-5.2879192129166465e-05
0.5995,-4.483302391091517e-05
0.59975,-9.900760110343998e-06
0.6,5.5720941522204326e-05
0.60025,0.00015032725962574417
0.6005,0.00026519507098523085
0.60075,0.0003840760613624954
0.601,0.00048468151670811314
0.60125,0.0005426386134795967
0.6015,0.0005509264438243774
0.60175,0.0005045709671101582
0.602,0.00041137020005753194
0.60225,0.0002927681259969358
0.6025,0.000167962384120985
0.60275,5.482524250050284e-05
0.603,-3.3228750457438665e-05
0.60325,-9.003079965854029e-05
0.6035,-0.00011585499544283395
0.60375,-0.00011623325053913163
0.604,-9.947493144937247e-05
0.60425,-7.337921578123101e-05
0.6045,-4.706622264672959e-05
0.60475,-2.488128274416967e-05
0.605,-9.345041582539866e-06
0.60525,-3.2007197064759256e-07
0.6055,2.9993943480383357e-06
0.60575,2.123376028190254e-06
0.606,-1.4739576774153283e-06
0.60625,-5.877459857826638e-06
0.6065,-9.806658830721138e-06
0.60675,-1.2460586599576198e-05
0.607,-1.3094023368760034e-05
0.60725,-1.0932972227236355e-05
0.6075,-5.47898050818566e-06
0.60775,3.1243232926974318e-06
0.608,1.4145495021829833e-05
0.60825,2.6232364271941294e-05
0.6085,3.7821569129770305e-05
0.60875,4.7517945298802654e-05
0.609,5.430098639599267e-05
0.60925,5.783789705671766e-05
0.6095,5.82755668012357e-05
0.60975,5.6117522448983766e-05
0.61,5.172158617070279e-05
0.61025,4.627757166996594e-05
0.6105,3.997320625108875e-05
0.61075,3.413207697291639e-05
0.611,3.0245053679039274e-05
0.61125,2.94630825822178e-05
0.6115,3.4269657830336556e-05
0.61175,4.4976516927271344e-05
0.612,6.20879408653341e-05
0.61225,8.391671210877742e-05
0.6125,0.000108686134193975
0.61275,0.00013175452205472542
0.613,0.00015069273268441746
0.61325,0.00016173736245029679
0.6135,0.00016401198234699643
0.61375,0.00015885180040217027
0.614,0.00014795850358750596
0.61425,0.00013537394169982271
0.6145,0.0001244923683168578
0.61475,0.00011878333818664566
0.615,0.0001196965938946086
0.61525,0.00012711822844192186
0.6155,0.00014093626991718982
0.61575,0.00015831037842131744
0.616,0.0001778755896996048
0.61625,0.00019772146825862156
0.6165,0.0002150433681219286
0.61675,0.00022885337018443687
0.617,0.00023662930226626684
0.61725,0.00023767116231767466
0.6175,0.0002303379472372087
0.61775,0.0002150787747018743
0.618,0.00019385853984040189
0.61825,0.0001688617345658869
0.6185,0.00014447886020535657
0.61875,0.00012544302744378069
0.619,0.00011484189853100675
0.61925,0.0001147543413065154
0.6195,0.00012410603830336568
0.61975,0.0001401961989091072
0.62,0.0001587664814345969
0.62025,0.00017384832616347383
0.6205,0.00018178790070733753
0.62075,0.00018004589301954494
0.621,0.0001677949193396446
0.62125,0.00014750549113998722
0.6215,0.00012140611472421791
0.62175,9.372308665953741e-05
0.622,6.766384479319055e-05
0.62225,4.524423467050229e-05
0.6225,2.8031836235010602e-05
0.62275,1.7767493963491795e-05
0.623,1.4192129198054804e-05
0.62325,1.7732472135713235e-05
0.6235,2.787393153537856e-05
0.62375,4.306474382884227e-05
0.624,6.0597821920351105e-05
0.62425,7.660368113446343e-05
0.6245,8.682145333565314e-05
0.62475,8.756583416781492e-05
0.625,7.687578464062996e-05
0.62525,5.528673039616091e-05
0.6255,2.62563426954231e-05
0.62575,-4.6397696863838605e-06
0.626,-3.095820845920546e-05
0.62625,-4.7232371483275765e-05
0.6265,-5.037959490375311e-05
0.62675,-4.0596296819162824e-05
0.627,-2.128462219622803e-05
0.62725,2.3411995329293486e-06
0.6275,2.4450844975235656e-05
0.62775,4.048384654864393e-05
0.628,4.81833940768932e-05
0.62825,4.7576248221653816e-05
0.6285,4.064698103681981e-05
0.62875,3.0001013216679e-05
0.629,1.798542020751612e-05
0.62925,5.961032057598061e-06
0.6295,-5.572398265466691e-06
0.62975,-1.6467400773467337e-05
0.63,-2.6127964922127754e-05
0.63025,-3.313190879529698e-05
0.6305,-3.536288572442739e-05
0.63075,-3.084398753627422e-05
0.631,-1.8815648556085236e-05
0.63125,-6.517293424199368e-07
0.6315,1.999390681763869e-05
0.63175,3.791847857182662e-05
0.632,4.8017189464584454e-05
0.63225,4.70850978757683e-05
0.6325,3.5210590599376435e-05
0.63275,1.6110101412411404e-05
0.633,-4.026676907804008e-06
0.63325,-1.8608384227471226e-05
0.6335,-2.3026723550114395e-05
0.63375,-1.670470462115605e-05
0.634,-3.169135452312286e-06
0.63425,1.0895673548052147e-05
0.6345,1.843130548712275e-05
0.63475,1.5036094591262997e-05
0.635,9.786134317956682e-07
0.63525,-1.8312212673319612e-05
0.6355,-3.39389163291566e-05
0.63575,-3.679637024500297e-05
0.636,-2.147966384998273e-05
0.63625,1.0803469210953406e-05
0.6365,5.196032979222052e-05
0.63675,8.87062507871067e-05
0.637,0.00010708213913724434
0.63725,9.73868768372345e-05
0.6375,5.829204990478418e-05
0.63775,-1.769443423299163e-06
0.638,-6.63170717196388e-05
0.63825,-0.0001156292201422717
0.6385,-0.000132959218604051
0.63875,-0.00011046541516174112
0.639,-5.195089344502859e-05
0.63925,2.682313372852397e-05
