Time,Modified_Signal
0.0,-2.6448746792079048e-05
0.001,-2.801385482997596e-05
0.002,-2.9552094972857426e-05
0.003,-3.0988959846844444e-05
0.004,-3.126082620130919e-05
0.005,-3.151829107494123e-05
0.006,-3.192849421970314e-05
0.007,-3.297631125649724e-05
0.008,-3.27643937569148e-05
0.009,-3.121212154544179e-05
0.01,-3.0053611312907747e-05
0.011,-2.953498770621258e-05
0.012,-2.8711163823043872e-05
0.013,-2.7742395105757397e-05
0.014,-2.6890863952414948e-05
0.015,-2.4617524153714266e-05
0.016,-2.1779388670126973e-05
0.017,-2.0627386875564026e-05
0.018,-1.9304854623868087e-05
0.019,-1.824665888922896e-05
0.02,-1.7778904299479785e-05
0.021,-1.631912649788827e-05
0.022,-1.5776850223200362e-05
0.023,-1.3954379719510791e-05
0.024,-1.404769508401357e-05
0.025,-1.5247348159122737e-05
0.026,-1.5139281854709636e-05
0.027,-1.5205532655601217e-05
0.028,-1.4224812440350085e-05
0.029,-1.4672997722976095e-05
0.03,-1.5523577907687698e-05
0.031,-1.7648126223300625e-05
0.032,-2.1516856327947342e-05
0.033,-2.3899314470853254e-05
0.034,-2.3465233506842378e-05
0.035,-2.328554428929785e-05
0.036,-2.4833506290636884e-05
0.037,-2.7685887435932062e-05
0.038,-2.7524097683986018e-05
0.039,-2.643516577047248e-05
0.04,-2.6712446495231542e-05
0.041,-2.595595822588832e-05
0.042,-2.5472276431525134e-05
0.043,-2.5473946881373444e-05
0.044,-2.6778427971969634e-05
0.045,-2.6306620683609207e-05
0.046,-2.4881091499680057e-05
0.047,-2.342413281429257e-05
0.048,-2.365583205628689e-05
0.049,-2.5592331273226137e-05
0.05,-2.4444451151325908e-05
0.051,-2.3816827191722597e-05
0.052,-2.3607662799197595e-05
0.053,-2.4109148010614414e-05
0.054,-2.490852868382991e-05
0.055,-2.428974541748305e-05
0.056,-2.3135500937413808e-05
0.057,-2.3029565568462122e-05
0.058,-2.3259098179981894e-05
0.059,-2.2816748589055134e-05
0.06,-2.2502318783523998e-05
0.061,-2.222379420042083e-05
0.062,-2.189761009714435e-05
0.063,-2.0148087132279108e-05
0.064,-1.8406048309946402e-05
0.065,-1.8106709038891964e-05
0.066,-1.7087005456644516e-05
0.067,-1.678258601742168e-05
0.068,-1.71247314356933e-05
0.069,-1.6337484001323323e-05
0.07,-1.5635256888110663e-05
0.071,-1.5721157739286037e-05
0.072,-1.648620143881318e-05
0.073,-1.9809509767144742e-05
0.074,-2.0759507617080008e-05
0.075,-1.999603479537768e-05
0.076,-2.1373207725287167e-05
0.077,-2.2542794711318087e-05
0.078,-2.215781870244063e-05
0.079,-2.2376077638324806e-05
0.08,-2.356327700280844e-05
0.081,-2.369550196331088e-05
0.082,-2.3660814569268933e-05
0.083,-2.3759839601883234e-05
0.084,-2.3905293556016842e-05
0.085,-2.4220506388791585e-05
0.086,-2.3537076152623485e-05
0.087,-2.2491873938593624e-05
0.088,-2.102367343891961e-05
0.089,-1.906971060141423e-05
0.09,-2.116248146977531e-05
0.091,-1.9827060297168983e-05
0.092,-1.6879168045972417e-05
0.093,-1.992414858059691e-05
0.094,-2.0656923329676914e-05
0.095,-2.026290331496942e-05
0.096,-1.971974904045104e-05
0.097,-2.0499792212957433e-05
0.098,-2.2472875796018993e-05
0.099,-2.0609335722810607e-05
0.1,-1.818284152556138e-05
0.101,-1.767283430648379e-05
0.102,-1.816634633638381e-05
0.103,-1.735905218428797e-05
0.104,-1.6555479837201528e-05
0.105,-1.7068393764188444e-05
0.106,-1.5117441943655302e-05
0.107,-1.4127227609413746e-05
0.108,-1.4225017242722954e-05
0.109,-1.3138324422722887e-05
0.11,-1.2192612197145196e-05
0.111,-1.190933488387254e-05
0.112,-1.1904496428771807e-05
0.113,-1.328784161515291e-05
0.114,-1.266272522086655e-05
0.115,-1.0926630308304718e-05
0.116,-1.067223804924898e-05
0.117,-1.0888895035195823e-05
0.118,-1.2764285729270817e-05
0.119,-1.108610142395887e-05
0.12,-9.543504255091774e-06
0.121,-1.0528214448391634e-05
0.122,-1.0935097606841085e-05
0.123,-1.2662191025438011e-05
0.124,-1.1110176838953381e-05
0.125,-8.581377648983918e-06
0.126,-8.678409613994007e-06
0.127,-9.20267218935316e-06
0.128,-1.0052877745323478e-05
0.129,-8.92382528693462e-06
0.13,-9.50560003430537e-06
0.131,-1.1183336808571848e-05
0.132,-1.2337624448707123e-05
0.133,-1.2945557180669039e-05
0.134,-1.2782364527822421e-05
0.135,-1.3823481995429158e-05
0.136,-1.2946867998830787e-05
0.137,-1.293533475670728e-05
0.138,-1.1778646673768221e-05
0.139,-1.0775151239067144e-05
0.14,-1.073274416461312e-05
0.141,-8.969029241909761e-06
0.142,-8.810608702157964e-06
0.143,-6.791524402165288e-06
0.144,-5.3509554924412025e-06
0.145,-4.530355670706229e-06
0.146,-3.670274626392166e-06
0.147,-2.907147244424091e-06
0.148,-1.5703461203134941e-06
0.149,-8.797761441257476e-07
0.15,1.2557545983763282e-06
0.151,7.392217217535996e-07
0.152,-4.1495074668396195e-07
0.153,-1.4822325327529626e-06
0.154,-6.302254049526807e-07
0.155,3.783994134331198e-07
0.156,-6.174698261700002e-07
0.157,-1.38088091332986e-06
0.158,-5.080113962761843e-06
0.159,-6.291471345208982e-06
0.16,-3.9013004106666e-06
0.161,-6.070598845436649e-07
0.162,-3.2173312315117942e-06
0.163,-4.750776694369888e-06
0.164,-2.4341463981609524e-06
0.165,-2.899528043118499e-06
0.166,-2.5811053534565033e-06
0.167,-8.11738432129494e-07
0.168,1.3803041860854515e-06
0.169,2.3741474035310964e-06
0.17,1.6583770017322087e-06
0.171,-7.678235034287718e-07
0.172,-1.794571460192565e-06
0.173,-1.1022225609484322e-06
0.174,3.675097082671275e-08
0.175,-2.0448685908448144e-06
0.176,-3.4121614749646006e-06
0.177,-3.7313659690459745e-06
0.178,-5.2730270685072996e-06
0.179,-5.614689074296511e-06
0.18,-6.34286997041218e-06
0.181,-4.154128357443499e-06
0.182,-3.3551253420502164e-06
0.183,-3.1616849265591746e-06
0.184,-1.7969569883641068e-06
0.185,-1.7888768154557505e-06
0.186,-2.467185358451246e-06
0.187,-2.660317818093394e-06
0.188,-2.3924805291809114e-06
0.189,-2.381216063073158e-06
0.19,-2.435706038397714e-06
0.191,-2.9559853507028003e-06
0.192,-2.3331480155903086e-06
0.193,-3.250522980176887e-06
0.194,-4.285698372752723e-06
0.195,-4.81318484252731e-06
0.196,-4.8074418196368876e-06
0.197,-4.345951544452289e-06
0.198,-3.8120186381505204e-06
0.199,-2.3969986768878857e-06
0.2,-3.001715253455642e-06
0.201,-2.836905858423166e-06
0.202,-2.222634554913036e-06
0.203,-2.2867140931597155e-06
0.204,-2.362281290707956e-06
0.205,-2.3847569651960624e-06
0.206,-1.1884865475000333e-06
0.207,3.9660695283652223e-07
0.208,1.4802348027991228e-07
0.209,5.303687332079421e-08
0.21,-5.898451773696211e-07
0.211,-4.070467182374548e-06
0.212,-3.5677104230697984e-06
0.213,-4.151220012430842e-06
0.214,-5.38401471091699e-06
0.215,-4.825731270398044e-06
0.216,-7.136190748304178e-06
0.217,-9.27894063786201e-06
0.218,-9.624427337589683e-06
0.219,-9.452488568111385e-06
0.22,-1.0453921534034992e-05
0.221,-9.830973495266213e-06
0.222,-9.596708028060624e-06
0.223,-9.773312071808353e-06
0.224,-9.289514745656046e-06
0.225,-9.677378281289384e-06
0.226,-9.868785244771539e-06
0.227,-9.591977996421239e-06
0.228,-9.468502705578267e-06
0.229,-1.061087134708242e-05
0.23,-9.12118462023387e-06
0.231,-9.090863476323474e-06
0.232,-1.0501526248081422e-05
0.233,-1.0926933162940508e-05
0.234,-1.0135811723543772e-05
0.235,-9.095285865265445e-06
0.236,-1.1374568067834978e-05
0.237,-1.1348543214714291e-05
0.238,-1.0200879202423254e-05
0.239,-1.092634174302927e-05
0.24,-1.0932065533463696e-05
0.241,-1.0737633832154865e-05
0.242,-1.0673933816223086e-05
0.243,-9.480874647407246e-06
0.244,-7.904167237823708e-06
0.245,-6.991458246089647e-06
0.246,-7.788176590679707e-06
0.247,-7.033482170524219e-06
0.248,-4.656700306899347e-06
0.249,-4.4745821104887e-06
0.25,-6.489654614175185e-06
0.251,-9.889822419905304e-06
0.252,-9.249264641040758e-06
0.253,-8.430548500570398e-06
0.254,-9.887765938386423e-06
0.255,-1.147040313875968e-05
0.256,-1.4827584352231554e-05
0.257,-1.7012297366731132e-05
0.258,-1.5185211717436115e-05
0.259,-1.511774175912835e-05
0.26,-1.6394080961052227e-05
0.261,-1.671203388947984e-05
0.262,-1.7282588474582467e-05
0.263,-1.6128291936108648e-05
0.264,-1.4880607373207647e-05
0.265,-1.4176523462326729e-05
0.266,-1.4354757742988129e-05
0.267,-1.2951928131595964e-05
0.268,-1.239906448329373e-05
0.269,-1.2418792779634363e-05
0.27,-1.2823453008796859e-05
0.271,-1.5714315348955427e-05
0.272,-1.6581947619789918e-05
0.273,-1.5907671341325025e-05
0.274,-1.53659356759086e-05
0.275,-1.5827348753260886e-05
0.276,-1.706204323111369e-05
0.277,-1.824302350575614e-05
0.278,-1.764914847982912e-05
0.279,-1.7767445320735966e-05
0.28,-1.659452178481028e-05
0.281,-1.4136939957038561e-05
0.282,-1.4410522875157034e-05
0.283,-1.4238676366292783e-05
0.284,-1.464991022549155e-05
0.285,-1.4874825254983013e-05
0.286,-1.4842887296131488e-05
0.287,-1.2579330689902563e-05
0.288,-1.1002519453529333e-05
0.289,-1.3022046324797366e-05
0.29,-1.293777262506957e-05
0.291,-1.3639913516662161e-05
0.292,-1.4910163738100208e-05
0.293,-1.5923749505661968e-05
0.294,-1.625219420663777e-05
0.295,-1.5766508897766847e-05
0.296,-1.774047143576785e-05
0.297,-1.8353645320719393e-05
0.298,-1.6793812563644066e-05
0.299,-1.7158551984274858e-05
0.3,-1.6655779738209325e-05
0.301,-1.610317409109393e-05
0.302,-1.6326520959377206e-05
0.303,-1.6057128963731115e-05
0.304,-1.5528561275036306e-05
0.305,-1.4773006247671579e-05
0.306,-1.4917651921923442e-05
0.307,-1.578143624438507e-05
0.308,-1.837251421790559e-05
0.309,-1.8086717807606488e-05
0.31,-1.640719045419097e-05
0.311,-1.8505264547582218e-05
0.312,-2.1442528285534224e-05
0.313,-2.1773910010063103e-05
0.314,-2.1251505150004336e-05
0.315,-2.192879364396233e-05
0.316,-2.186485205445961e-05
0.317,-2.172815913135299e-05
0.318,-2.1999627223145933e-05
0.319,-2.3674561703976057e-05
0.32,-2.23633499403561e-05
0.321,-1.9590800772668102e-05
0.322,-2.0694183508496527e-05
0.323,-2.0020139588568492e-05
0.324,-1.7120748274633525e-05
0.325,-1.5749109311260623e-05
0.326,-1.5454852474524288e-05
0.327,-1.4979991540492297e-05
0.328,-1.54555076157258e-05
0.329,-1.4598977028930313e-05
0.33,-1.4713458785442277e-05
0.331,-1.7387735625173045e-05
0.332,-1.799787274057441e-05
0.333,-1.620993184788808e-05
0.334,-1.4783567871233387e-05
0.335,-1.677615176123406e-05
0.336,-1.6147014093245888e-05
0.337,-1.636139483468416e-05
0.338,-1.9593715919618595e-05
0.339,-1.9129861937160862e-05
0.34,-1.8368253574733623e-05
0.341,-1.7919618695264856e-05
0.342,-1.7405495252571463e-05
0.343,-1.6855625950966407e-05
0.344,-1.6604514275804117e-05
0.345,-1.6787494470699592e-05
0.346,-1.6736716051918043e-05
0.347,-1.6677451799688166e-05
0.348,-1.7225106016764302e-05
0.349,-1.6983230345261013e-05
0.35,-1.7742754407156435e-05
0.351,-1.9182517811733186e-05
0.352,-1.9471060526645674e-05
0.353,-2.0769502987530916e-05
0.354,-2.1235237999044737e-05
0.355,-2.172607424339097e-05
0.356,-2.250442419751835e-05
0.357,-2.194112215559055e-05
0.358,-2.2118491637972426e-05
0.359,-2.2032352533472783e-05
0.36,-2.1292759985673177e-05
0.361,-2.1623389414083688e-05
0.362,-2.055961324060816e-05
0.363,-1.844544208819887e-05
0.364,-1.792961403161e-05
0.365,-1.736119910482674e-05
0.366,-1.6985134550825194e-05
0.367,-1.6538114525653433e-05
0.368,-1.6345225329801926e-05
0.369,-1.6317646899699833e-05
0.37,-1.6151640075662545e-05
0.371,-1.7428916883286993e-05
0.372,-1.8118359563232702e-05
0.373,-1.8678926068005483e-05
0.374,-2.026346755064162e-05
0.375,-2.0323097764123564e-05
0.376,-2.061170342224939e-05
0.377,-2.11901731941133e-05
0.378,-2.102995201917562e-05
0.379,-2.4015593822978843e-05
0.38,-2.404608286299453e-05
0.381,-2.363481227468914e-05
0.382,-2.2008236359577577e-05
0.383,-1.8103338343672004e-05
0.384,-1.83641656810102e-05
0.385,-1.723776996320072e-05
0.386,-1.6569940155784116e-05
0.387,-1.530113156374543e-05
0.388,-1.606296772524271e-05
0.389,-1.677563124371739e-05
0.39,-1.5746368784291653e-05
0.391,-1.7469224305791265e-05
0.392,-1.7625994203366113e-05
0.393,-1.8388280317623803e-05
0.394,-1.8520413250875257e-05
0.395,-1.8982939117072324e-05
0.396,-2.063631523117802e-05
0.397,-2.1644448580812715e-05
0.398,-2.0677735859852797e-05
0.399,-2.1215322366247916e-05
0.4,-2.244638283657251e-05
0.401,-2.077033130654554e-05
0.402,-2.0495978608499357e-05
0.403,-2.363976375310423e-05
0.404,-2.5223278303880526e-05
0.405,-1.9170371643347367e-05
0.406,-1.6604162974348703e-05
0.407,-1.9344289414668923e-05
0.408,-1.960468857815821e-05
0.409,-1.9892152064264235e-05
0.41,-1.9505799927487494e-05
0.411,-1.9237524565226738e-05
0.412,-1.9473346179261575e-05
0.413,-1.9795522115242177e-05
0.414,-2.0185169368855384e-05
0.415,-1.992510203045695e-05
0.416,-1.930255946372889e-05
0.417,-1.8911509381363145e-05
0.418,-1.8454251966904223e-05
0.419,-1.854212261149097e-05
0.42,-1.6795184459999248e-05
0.421,-1.5640908250291053e-05
0.422,-1.7111944986347893e-05
0.423,-1.6543195664445692e-05
0.424,-1.4568461304313325e-05
0.425,-1.4517007582973602e-05
0.426,-1.591039586739991e-05
0.427,-1.6059914193143417e-05
0.428,-1.6864889143304607e-05
0.429,-1.661207753534104e-05
0.43,-1.577623322978351e-05
0.431,-1.6821829387126754e-05
0.432,-1.7605801511453523e-05
0.433,-1.7781073136613148e-05
0.434,-1.8800544498916868e-05
0.435,-1.9821173374168933e-05
0.436,-2.140776187040186e-05
0.437,-2.253608529208672e-05
0.438,-2.0995057438129605e-05
0.439,-2.1787715506986806e-05
0.44,-2.2130918736702462e-05
0.441,-1.9153777332844663e-05
0.442,-1.8694950247456667e-05
0.443,-1.939906003260957e-05
0.444,-1.851255949431161e-05
0.445,-1.8179439603663428e-05
0.446,-1.6837185524298918e-05
0.447,-1.5513365747645947e-05
0.448,-1.6623180076552353e-05
0.449,-1.7268201111138608e-05
0.45,-1.6736429652607404e-05
0.451,-1.7003658037172064e-05
0.452,-1.7836009067627312e-05
0.453,-1.6593404198589267e-05
0.454,-1.903362407951602e-05
0.455,-2.0416566356523066e-05
0.456,-1.9508285557308187e-05
0.457,-2.1384420025741985e-05
0.458,-1.9332669425716758e-05
0.459,-1.9354077752792033e-05
0.46,-1.9662992323669456e-05
0.461,-1.848569773748725e-05
0.462,-1.8657852906223666e-05
0.463,-1.7820976429398984e-05
0.464,-1.581831945673172e-05
0.465,-1.4190526583481722e-05
0.466,-1.397150821583157e-05
0.467,-1.4484929893258739e-05
0.468,-1.534166686438012e-05
0.469,-1.6138481172613113e-05
0.47,-1.66580622794729e-05
0.471,-1.6770441935689206e-05
0.472,-1.8435662072484377e-05
0.473,-1.9407453565685883e-05
0.474,-1.7037585415982027e-05
0.475,-1.56804776218548e-05
0.476,-1.6597643165932958e-05
0.477,-1.7161537787722534e-05
0.478,-1.6158449348573263e-05
0.479,-1.5890146581771188e-05
0.48,-1.5374121525936367e-05
0.481,-1.3942390124588909e-05
0.482,-1.3738949040711907e-05
0.483,-1.1516111104611369e-05
0.484,-1.1830045329982356e-05
0.485,-1.1635920468565444e-05
0.486,-9.183086934059313e-06
0.487,-8.61072747052668e-06
0.488,-9.04436285701895e-06
0.489,-8.69351964993459e-06
0.49,-8.450760171178063e-06
0.491,-1.04921508762414e-05
0.492,-8.579115626056273e-06
0.493,-1.0061497370826442e-05
0.494,-1.1281546690210677e-05
0.495,-1.0978478031414417e-05
0.496,-1.4393191121721269e-05
0.497,-1.4172749337847254e-05
0.498,-1.417423859928182e-05
0.499,-1.7367695871662408e-05
0.5,-1.773788873631129e-05
0.501,-1.6884837395503748e-05
0.502,-1.6723087145493962e-05
0.503,-1.5979851549390447e-05
0.504,-1.549224374534236e-05
0.505,-1.490388668641835e-05
0.506,-1.4861236300248193e-05
0.507,-1.3309961341219569e-05
0.508,-1.2291700193974446e-05
0.509,-1.1241461450682039e-05
0.51,-1.1685857970976519e-05
0.511,-1.3742271777294507e-05
0.512,-1.2718949278361639e-05
0.513,-1.0915932990270605e-05
0.514,-8.026656463393674e-06
0.515,-6.539971205311181e-06
0.516,-7.542343302188816e-06
0.517,-8.119955580835825e-06
0.518,-7.360477832882219e-06
0.519,-7.954319189470508e-06
0.52,-8.195246998018747e-06
0.521,-8.080337460029576e-06
0.522,-9.50930579211461e-06
0.523,-9.883338684942284e-06
0.524,-1.030361118680241e-05
0.525,-1.1869707429132798e-05
0.526,-1.3478175872692874e-05
0.527,-1.4521433857255967e-05
0.528,-1.528719500699505e-05
0.529,-1.445853105248658e-05
0.53,-1.541460371963559e-05
0.531,-1.773202089164409e-05
0.532,-1.8986693317927247e-05
0.533,-2.0056002472275503e-05
0.534,-2.0821044273470984e-05
0.535,-2.1268692762932296e-05
0.536,-2.1393235338799826e-05
0.537,-2.169736666047929e-05
0.538,-2.119238875471181e-05
0.539,-2.1097544355660372e-05
0.54,-2.0738501134513305e-05
0.541,-2.06450969049713e-05
0.542,-1.994854040755333e-05
0.543,-1.93783297441975e-05
0.544,-1.91591933602729e-05
0.545,-1.850837140517618e-05
0.546,-1.8833536023702388e-05
0.547,-1.9331598537852895e-05
0.548,-1.898857366669518e-05
0.549,-1.948057284125672e-05
0.55,-2.1875889452229723e-05
0.551,-2.1438029011696735e-05
0.552,-1.9229437534152855e-05
0.553,-1.951560202948738e-05
0.554,-2.0669146193246665e-05
0.555,-2.0373527929628896e-05
0.556,-2.0425965805210656e-05
0.557,-1.883927796026661e-05
0.558,-1.844240498524954e-05
0.559,-2.007950028914035e-05
0.56,-1.7607597605051442e-05
0.561,-1.669299404719503e-05
0.562,-1.5106606662035985e-05
0.563,-1.3318659497421379e-05
0.564,-1.1693127389536623e-05
0.565,-1.1282395142368087e-05
0.566,-1.3622583076636674e-05
0.567,-1.3029942261583434e-05
0.568,-1.3898639004752346e-05
0.569,-1.4700135595868377e-05
0.57,-1.4784242798507012e-05
0.571,-1.8281780844420762e-05
0.572,-2.1808652083686305e-05
0.573,-2.497101189069961e-05
0.574,-2.7571135265190657e-05
0.575,-2.981352261741082e-05
0.576,-3.101077406226369e-05
0.577,-3.088878808753447e-05
0.578,-3.099090490303407e-05
0.579,-3.208071087766355e-05
0.58,-3.314333915351178e-05
0.581,-3.308523174822652e-05
0.582,-3.183245825973922e-05
0.583,-2.922780392084588e-05
0.584,-2.842693477182071e-05
0.585,-2.8394011955005107e-05
0.586,-2.5597155425342544e-05
0.587,-2.280414801271919e-05
0.588,-2.08787256354522e-05
0.589,-1.867772376351801e-05
0.59,-1.734925197949447e-05
0.591,-1.5431957693559356e-05
0.592,-1.3855327752261627e-05
0.593,-1.334087379010594e-05
0.594,-1.1903963541015861e-05
0.595,-1.0956003735373125e-05
0.596,-1.1106655665221964e-05
0.597,-1.0365773792335298e-05
0.598,-9.944799338269208e-06
0.599,-1.0957409916798785e-05
0.6,-1.1419315580232628e-05
0.601,-1.2947191886532186e-05
0.602,-1.5056841518864435e-05
0.603,-1.6460767411320137e-05
0.604,-1.856541310220124e-05
0.605,-2.086837292175877e-05
0.606,-2.365589100701779e-05
0.607,-2.6800952438543026e-05
0.608,-3.056222358485862e-05
0.609,-3.348402656044386e-05
0.61,-3.689744158657188e-05
0.611,-4.062252980408569e-05
0.612,-4.447156743747245e-05
0.613,-4.775308980869701e-05
0.614,-4.927646921143678e-05
0.615,-5.085670092278054e-05
0.616,-5.1119051029144394e-05
0.617,-5.040322980446828e-05
0.618,-4.796679367645348e-05
0.619,-4.6287543161104756e-05
0.62,-4.31647670419891e-05
0.621,-3.851927639688875e-05
0.622,-3.379226691213938e-05
0.623,-2.7243135452253787e-05
0.624,-2.104644921423285e-05
0.625,-1.3788316860978855e-05
0.626,-6.862436960123828e-06
0.627,-6.660986414160255e-07
0.628,6.50361590233816e-06
0.629,1.435322367330731e-05
0.63,2.0595685719356123e-05
0.631,2.765263137389377e-05
0.632,3.5955957559005846e-05
0.633,4.0348860095042355e-05
0.634,4.448640118515004e-05
0.635,4.8335745750722227e-05
0.636,4.987620664964326e-05
0.637,5.0599225058014666e-05
0.638,4.8908379932753166e-05
0.639,4.7919474152685275e-05
0.64,4.8060690954385115e-05
0.641,4.64727598715447e-05
0.642,4.390902392651745e-05
0.643,4.1135265997855624e-05
0.644,3.6029137343425e-05
0.645,2.8379038385911427e-05
0.646,1.978233180231207e-05
0.647,1.174281883745727e-05
0.648,5.16747724830908e-06
0.649,-4.3746303396934826e-07
0.65,-2.3709504379499965e-06
0.651,-3.741818625705723e-06
0.652,-6.173480656573623e-06
0.653,-7.70828404380987e-06
0.654,-7.911190211948105e-06
0.655,-9.372461943722431e-06
0.656,-1.2209092722161715e-05
0.657,-7.764789516364707e-06
0.658,-5.308419838398856e-06
0.659,-6.430946811294755e-06
0.66,-3.1409929260998318e-06
0.661,-8.592837950000349e-07
0.662,-1.4123174357774495e-06
0.663,1.2743264338441489e-06
0.664,3.882585764258963e-06
0.665,2.1079721716120367e-06
0.666,4.56466782923103e-06
0.667,4.889318346793796e-06
0.668,4.943276473466403e-06
0.669,5.813171822219257e-06
0.67,4.80981255805223e-06
0.671,2.065554871595379e-06
0.672,-3.0696061709850074e-06
0.673,-6.9328753518511065e-06
0.674,-1.2354011619588696e-05
0.675,-1.5760755098395037e-05
0.676,-2.0083893195637045e-05
0.677,-2.296157853467459e-05
0.678,-2.534259020904215e-05
0.679,-3.0088333607763743e-05
0.68,-3.317349312939885e-05
0.681,-3.7685375513569664e-05
0.682,-4.192209802548288e-05
0.683,-4.3489874851960145e-05
0.684,-4.55997280637249e-05
0.685,-4.766399016085311e-05
0.686,-5.0492970430388795e-05
0.687,-5.4392127342777074e-05
0.688,-5.616002752605455e-05
0.689,-5.888728493694759e-05
0.69,-5.9956570430422786e-05
0.691,-6.084367217501268e-05
0.692,-6.391948187673481e-05
0.693,-6.625269059633144e-05
0.694,-6.801290958967216e-05
0.695,-6.86738922711454e-05
0.696,-7.001652641621425e-05
0.697,-7.053129124081821e-05
0.698,-6.921992904283457e-05
0.699,-6.729615987422544e-05
0.7,-6.648536222543175e-05
0.701,-6.652324352611738e-05
0.702,-6.425362149590117e-05
0.703,-6.102552159747528e-05
0.704,-5.7589859029486006e-05
0.705,-5.4996009983754336e-05
0.706,-5.258858312141075e-05
0.707,-4.980467821611753e-05
0.708,-4.61718674521626e-05
0.709,-4.310706138655683e-05
0.71,-4.141633361125806e-05
0.711,-3.779568453229651e-05
0.712,-3.5832634702784815e-05
0.713,-3.590846061026651e-05
0.714,-3.530082818404122e-05
0.715,-3.27865469467448e-05
0.716,-2.9144163501642795e-05
0.717,-2.795613691141742e-05
0.718,-2.8910387680511997e-05
0.719,-2.840108121204663e-05
0.72,-2.5728588552090644e-05
0.721,-2.6498653548823464e-05
0.722,-2.6420877494379226e-05
0.723,-2.3106701676398146e-05
0.724,-2.2867118195763157e-05
0.725,-2.3210365089954457e-05
0.726,-2.1339860918360927e-05
0.727,-2.2552606905403036e-05
0.728,-2.4338234533705316e-05
0.729,-2.1978808484430146e-05
0.73,-2.354941614487145e-05
0.731,-2.651949367912484e-05
0.732,-2.5454763213720457e-05
0.733,-2.6919593700395806e-05
0.734,-2.8179555726737163e-05
0.735,-2.9103922139008354e-05
0.736,-3.0767873533677615e-05
0.737,-2.8754199542153616e-05
0.738,-2.7654339923354733e-05
0.739,-2.926867816910852e-05
0.74,-2.7906077410785545e-05
0.741,-2.5082725842852932e-05
0.742,-2.672042858760885e-05
0.743,-2.854453766869544e-05
0.744,-2.5781745854769503e-05
0.745,-2.3157980043838576e-05
0.746,-2.2496614565340884e-05
0.747,-2.1317185891445076e-05
0.748,-2.003473185229207e-05
0.749,-1.9159806682372987e-05
0.75,-1.9599145662728525e-05
0.751,-1.9856878003199822e-05
0.752,-1.7836121982402027e-05
0.753,-1.654074926389296e-05
0.754,-1.6277081014963262e-05
0.755,-1.5855279933446408e-05
0.756,-1.6990229854856497e-05
0.757,-1.5301745872381624e-05
0.758,-1.241402796012101e-05
0.759,-1.4454353015381866e-05
0.76,-1.5251085742384655e-05
0.761,-1.5031169067587576e-05
0.762,-1.6117321339783482e-05
0.763,-1.57252131756689e-05
0.764,-1.4060916180171663e-05
0.765,-1.3018906147583234e-05
0.766,-1.5180864830656043e-05
0.767,-1.7215459934145796e-05
0.768,-1.837919827053268e-05
0.769,-1.9218349759779768e-05
0.77,-2.167183931060777e-05
0.771,-2.327490925758624e-05
0.772,-2.3763276198366928e-05
0.773,-2.5877450703622552e-05
0.774,-2.726686226644567e-05
0.775,-2.7693438115815363e-05
0.776,-2.843432319242321e-05
0.777,-2.80834966379802e-05
0.778,-2.9052131711121033e-05
0.779,-2.8767652942762057e-05
0.78,-2.4871556867000828e-05
0.781,-2.4916170466590984e-05
0.782,-2.436061456194471e-05
0.783,-2.276630906114305e-05
0.784,-2.2392396725408626e-05
0.785,-2.1091468111167896e-05
0.786,-1.9505941989469785e-05
0.787,-1.8365395392711327e-05
0.788,-1.9385051051300372e-05
0.789,-1.806552536915154e-05
0.79,-1.819382695598964e-05
0.791,-1.894548457442524e-05
0.792,-1.78875844425192e-05
0.793,-1.9482419239502442e-05
0.794,-1.9391401925074963e-05
0.795,-1.9278880921239055e-05
0.796,-1.951551052764274e-05
0.797,-1.898087964137991e-05
0.798,-1.8665177919182854e-05
0.799,-1.836977393373513e-05
0.8,-1.7806685342634875e-05
0.801,-1.6897026444531373e-05
0.802,-1.636861369165615e-05
0.803,-1.54529857918372e-05
0.804,-1.6182144935495926e-05
0.805,-1.718534499771141e-05
0.806,-1.748623987877194e-05
0.807,-1.7900662171445376e-05
0.808,-1.8535233726216262e-05
0.809,-1.988692253015921e-05
0.81,-1.8143563465588027e-05
0.811,-1.6385263675657232e-05
0.812,-1.4986526039116733e-05
0.813,-1.69188552020269e-05
0.814,-1.935356640264765e-05
0.815,-1.7964502097405285e-05
0.816,-1.913037636552786e-05
0.817,-2.033651042382135e-05
0.818,-2.1275789676599385e-05
0.819,-2.1048756561492585e-05
0.82,-2.0662845389052415e-05
0.821,-2.203085599956522e-05
0.822,-2.2368843133726254e-05
0.823,-1.8893659792203454e-05
0.824,-1.7720429311951575e-05
0.825,-1.9360228717289643e-05
0.826,-1.861824431553786e-05
0.827,-1.889261168386289e-05
0.828,-2.0174081078445058e-05
0.829,-2.0546563095027806e-05
0.83,-1.988851686841406e-05
0.831,-1.9775053629176464e-05
0.832,-1.8180551171039767e-05
0.833,-1.838151765778724e-05
0.834,-1.9659412154095513e-05
0.835,-2.0203127643239802e-05
0.836,-2.071087049842337e-05
0.837,-1.9391225814502145e-05
0.838,-1.8663275350064443e-05
0.839,-1.6955726520770576e-05
0.84,-1.5105107890296083e-05
0.841,-1.3153179307988644e-05
0.842,-1.2443783996301433e-05
0.843,-1.251942754223685e-05
0.844,-1.0117899029486381e-05
0.845,-8.769249274952658e-06
0.846,-8.393410124703178e-06
0.847,-8.998679876717452e-06
0.848,-1.03812187537921e-05
0.849,-9.425602792981487e-06
0.85,-9.106383844718892e-06
0.851,-9.690507422017073e-06
0.852,-9.840358314991865e-06
0.853,-1.0117144235861627e-05
0.854,-9.984296174173938e-06
0.855,-1.0210563765960482e-05
0.856,-1.0472514896129383e-05
0.857,-1.0056207965059341e-05
0.858,-1.0357886973040883e-05
0.859,-1.0383645800310672e-05
0.86,-9.648109337654873e-06
0.861,-9.372275495729712e-06
0.862,-9.080744106304483e-06
0.863,-7.498618251906521e-06
0.864,-6.94839475823354e-06
0.865,-9.847160385329869e-06
0.866,-9.904378688326877e-06
0.867,-9.020492717651879e-06
0.868,-9.086486619305478e-06
0.869,-8.48445291865458e-06
0.87,-9.289111376887482e-06
0.871,-9.270129814364603e-06
0.872,-9.395016689701676e-06
0.873,-9.232297529281366e-06
0.874,-9.654658274118514e-06
0.875,-9.441741163039944e-06
0.876,-8.982312680441833e-06
0.877,-9.775585021242298e-06
0.878,-8.631556329242483e-06
0.879,-7.370332322825615e-06
0.88,-5.520493142607068e-06
0.881,-5.216664243256461e-06
0.882,-2.3965294093024447e-06
0.883,2.902420448267734e-06
0.884,2.7460827692778356e-06
0.885,-9.343115045130357e-08
0.886,-1.735617671985665e-06
0.887,-1.290261325931133e-06
0.888,1.3429001881402504e-06
0.889,4.273500353016236e-06
0.89,3.7189336096575656e-06
0.891,3.201981527035833e-06
0.892,2.747924325962481e-06
0.893,2.281439881265879e-06
0.894,2.2236151866231376e-06
0.895,2.2893853445231596e-06
0.896,2.6856732270073763e-06
0.897,3.1104330317360987e-06
0.898,3.4527098482772137e-06
0.899,3.393724030287387e-06
0.9,5.4088839024517754e-06
0.901,5.570533649094989e-06
0.902,6.651164891879893e-06
0.903,6.326768475242953e-06
0.904,4.6799827922241e-06
0.905,3.502708937471971e-06
0.906,1.6979100375968005e-06
0.907,2.6803879609148127e-06
0.908,2.2764280423075464e-06
0.909,1.922312073536983e-06
0.91,1.4618109224614845e-06
0.911,8.42869836761423e-07
0.912,-4.862183230626954e-07
0.913,-3.4808022370451445e-06
0.914,-4.503652878647073e-06
0.915,-3.928179677394386e-06
0.916,-4.340775082448077e-06
0.917,-2.842059777867631e-06
0.918,1.2530973353062357e-06
0.919,1.1167955330463956e-06
0.92,1.2104496024940432e-06
0.921,4.588055545784874e-06
0.922,5.300074812230164e-06
0.923,4.997578345875029e-06
0.924,4.336267071951887e-06
0.925,3.1799974941357837e-06
0.926,3.903488775797783e-06
0.927,5.493966501317508e-06
0.928,5.651600684938123e-06
0.929,5.088711629804633e-06
0.93,6.22783570064604e-06
0.931,6.298852462709369e-06
0.932,5.335464322994992e-06
0.933,4.671381057993761e-06
0.934,2.03658845724823e-06
0.935,1.5540701373096433e-06
0.936,3.237305382302186e-06
0.937,3.988788163516997e-06
0.938,4.599710884831359e-06
0.939,5.650840842451195e-06
0.94,6.11449920001799e-06
0.941,5.3574430535186365e-06
0.942,5.544361615232195e-06
0.943,5.341636480579269e-06
0.944,5.020989366783499e-06
0.945,5.062651256947525e-06
0.946,4.357733533016618e-06
0.947,4.109559873102506e-06
0.948,4.233819755074542e-06
0.949,2.6575203265775674e-06
0.95,-1.8831682235065817e-06
0.951,-1.8459694747501589e-06
0.952,-4.861662162956603e-07
0.953,-3.0605204942162443e-06
0.954,-4.231068508449124e-06
0.955,-5.7684221897864816e-06
0.956,-6.654257097766896e-06
0.957,-6.182745651484882e-06
0.958,-6.360797862473896e-06
0.959,-6.607088556153046e-06
0.96,-5.949969063291175e-06
0.961,-6.024470825219535e-06
0.962,-5.668697501068688e-06
0.963,-5.219962195683203e-06
0.964,-5.011051404052089e-06
0.965,-4.566984698775624e-06
0.966,-4.502590273128346e-06
0.967,-5.921135976227257e-06
0.968,-6.214151334332287e-06
0.969,-5.2624584770933626e-06
0.97,-6.3383104448933836e-06
0.971,-7.208425801320157e-06
0.972,-6.737619604931057e-06
0.973,-7.192671367440759e-06
0.974,-1.0046046505394177e-05
0.975,-1.0679101366741346e-05
0.976,-7.484451855870722e-06
0.977,-5.867267079033979e-06
0.978,-5.345354273698545e-06
0.979,-2.848019246004455e-06
0.98,-4.813806004095245e-06
0.981,-6.987328481375508e-06
0.982,-4.915495450933307e-06
0.983,-2.8434882796929406e-06
0.984,-1.1108743356519509e-06
0.985,-3.348224425660842e-06
0.986,-7.455211035817603e-08
0.987,1.4041888031987353e-06
0.988,-3.30458329703813e-06
0.989,-5.1809704707646665e-06
0.99,-6.594590275143226e-06
0.991,-7.207463724487007e-06
0.992,-7.977501318034458e-06
0.993,-8.06223687107439e-06
0.994,-9.52243882975805e-06
0.995,-1.022524596490884e-05
0.996,-9.946526989539908e-06
0.997,-1.0172246336016633e-05
0.998,-1.1898722648116772e-05
0.999,-1.3631781894987924e-05
1.0,-1.3084921680135554e-05
1.001,-1.357670563343962e-05
1.002,-1.2527686297586044e-05
1.003,-1.2257203491680449e-05
1.004,-1.2880417702972644e-05
1.005,-1.260591320196769e-05
1.006,-1.2634145666387045e-05
1.007,-1.40569200757448e-05
1.008,-1.495797543295663e-05
1.009,-1.4614634524903357e-05
1.01,-1.4700361504787215e-05
1.011,-1.3887969425791211e-05
1.012,-1.4653144449578213e-05
1.013,-1.4777911313824177e-05
1.014,-1.4453660511477946e-05
1.015,-1.4383392469747908e-05
1.016,-1.3982904865381108e-05
1.017,-1.3580749467537646e-05
1.018,-1.2016904925013112e-05
1.019,-9.340239978535725e-06
1.02,-8.904965000223311e-06
1.021,-8.966376162432854e-06
1.022,-7.87627507302451e-06
1.023,-7.778489163916242e-06
1.024,-7.904919729215206e-06
1.025,-6.672504490794785e-06
1.026,-5.481403220223574e-06
1.027,-7.914605363157491e-06
1.028,-1.0339028030251957e-05
1.029,-9.908033534447792e-06
1.03,-1.0965161232661763e-05
1.031,-1.1948751803591928e-05
1.032,-1.1697054688690955e-05
1.033,-1.5553359932664343e-05
1.034,-1.8370689174722473e-05
1.035,-1.8515618032909143e-05
1.036,-1.8370880319978855e-05
1.037,-1.9136516210000233e-05
1.038,-1.842946114951416e-05
1.039,-1.5881617216333343e-05
1.04,-1.4536589971875797e-05
1.041,-1.5045398120160525e-05
1.042,-1.5461558571464737e-05
1.043,-1.4636006665645138e-05
1.044,-1.6212324848875382e-05
1.045,-1.572272172328242e-05
1.046,-1.4785130135894438e-05
1.047,-1.6401684916745987e-05
1.048,-1.5458708450241786e-05
1.049,-1.3728188251866476e-05
1.05,-1.6470589014803498e-05
1.051,-1.9038715836519306e-05
1.052,-1.8982247612541266e-05
1.053,-1.8252499227086995e-05
1.054,-1.900695385877566e-05
1.055,-2.0713133931737648e-05
1.056,-2.0951448112159304e-05
1.057,-1.9416755353938708e-05
1.058,-1.9518515036020358e-05
1.059,-1.987953204812832e-05
1.06,-1.93334434947597e-05
1.061,-1.8521215961190297e-05
1.062,-1.788701705015356e-05
1.063,-1.757388292839586e-05
1.064,-1.4319619342794625e-05
1.065,-1.3353345595783976e-05
1.066,-1.4493022256338562e-05
1.067,-1.4544200904815253e-05
1.068,-1.5200108285706799e-05
1.069,-1.5443040505882558e-05
1.07,-1.5646909064674397e-05
1.071,-1.548066293891293e-05
1.072,-1.6112221448672467e-05
1.073,-1.6512500181083354e-05
1.074,-1.6359102143733013e-05
1.075,-1.6539279630097562e-05
1.076,-1.645184574931461e-05
1.077,-1.4807820928270289e-05
1.078,-1.3929728362184175e-05
1.079,-1.4649590541088527e-05
1.08,-1.4405812797595495e-05
1.081,-1.3939255873512236e-05
1.082,-1.3888886075673936e-05
1.083,-1.4687439858858199e-05
1.084,-1.4757544582860338e-05
1.085,-1.4308697975893348e-05
1.086,-1.4435429109716129e-05
1.087,-1.4016851101585221e-05
1.088,-1.5217681246045962e-05
1.089,-1.7690661010414578e-05
1.09,-1.7180170395534947e-05
1.091,-1.9226712201887426e-05
1.092,-2.257185357597438e-05
1.093,-2.316316368678488e-05
1.094,-2.265868247607869e-05
1.095,-2.203049674966025e-05
1.096,-2.4167082597147994e-05
1.097,-2.317418933287001e-05
1.098,-2.267417861542843e-05
1.099,-2.2403879685365274e-05
1.1,-2.1311163414918468e-05
1.101,-2.2050560253425078e-05
1.102,-1.9078338206888428e-05
1.103,-1.8647507789219862e-05
1.104,-1.990322643496062e-05
1.105,-1.9479034605653678e-05
1.106,-1.749427368048153e-05
1.107,-1.715291973125336e-05
1.108,-1.834392880061246e-05
1.109,-1.7543041898070345e-05
1.11,-1.6415856045014315e-05
1.111,-1.5121845236272757e-05
1.112,-1.5118924127698156e-05
1.113,-1.626809649709435e-05
1.114,-1.7137724978034845e-05
1.115,-1.830699869289887e-05
1.116,-1.836825716859424e-05
1.117,-1.6727944155929357e-05
1.118,-1.7406102240197976e-05
1.119,-1.7034464805285972e-05
1.12,-1.6153341552802598e-05
1.121,-1.5107613544388693e-05
1.122,-1.42422417697809e-05
1.123,-1.4797740839006207e-05
1.124,-1.2806071865799946e-05
1.125,-1.0787365747760093e-05
1.126,-1.1547804161885678e-05
1.127,-1.3978869071018886e-05
1.128,-1.5158034020214688e-05
1.129,-1.5850825734575912e-05
1.13,-1.7314046988722772e-05
1.131,-1.629983517456753e-05
1.132,-1.536014714216197e-05
1.133,-1.8051218174904653e-05
1.134,-2.0237545736706127e-05
1.135,-2.0694996707462233e-05
1.136,-2.2112725485398984e-05
1.137,-2.1493710787825193e-05
1.138,-2.2053859223643617e-05
1.139,-2.291976971692859e-05
1.14,-1.9825389975027613e-05
1.141,-1.8707910588866227e-05
1.142,-1.920332240918095e-05
1.143,-1.9542100319385672e-05
1.144,-1.944546739651953e-05
1.145,-1.8422638323775904e-05
1.146,-1.976934499606352e-05
1.147,-2.206781985117097e-05
1.148,-2.1988266069476686e-05
1.149,-2.2191692894232917e-05
1.15,-2.1533853958196168e-05
1.151,-2.076991074526714e-05
1.152,-2.0359363908951438e-05
1.153,-2.0470760333757888e-05
1.154,-2.1185697427368557e-05
1.155,-1.9101707274128484e-05
1.156,-1.8433706365490762e-05
1.157,-1.7513831874742932e-05
1.158,-1.6689639848464372e-05
1.159,-1.7120799258712205e-05
1.16,-1.4874563101116767e-05
1.161,-1.282041914951053e-05
1.162,-1.1324406542053665e-05
1.163,-1.0743621666793735e-05
1.164,-9.72142390397622e-06
1.165,-1.1483789620602114e-05
1.166,-1.2137157165303186e-05
1.167,-1.0567966513256829e-05
1.168,-1.1943938000350356e-05
1.169,-1.3816970613432322e-05
1.17,-1.4527387436901732e-05
1.171,-1.3909128930280618e-05
1.172,-1.6695406076098157e-05
1.173,-1.8224283741648436e-05
1.174,-1.8243673936120226e-05
1.175,-1.9015278144152198e-05
1.176,-1.9217121814010416e-05
1.177,-1.8644462270960673e-05
1.178,-1.930901035311216e-05
1.179,-2.0736570419396995e-05
1.18,-2.0663357015052004e-05
1.181,-1.963137439203867e-05
1.182,-1.838333476928396e-05
1.183,-2.0757633912922132e-05
1.184,-2.2283894149466223e-05
1.185,-2.167952613625952e-05
1.186,-2.0847657380393175e-05
1.187,-2.0976637771770634e-05
1.188,-1.914117381612166e-05
1.189,-1.99049794200728e-05
1.19,-2.312467812880732e-05
1.191,-2.2654564736892026e-05
1.192,-2.4151745746199636e-05
1.193,-2.1981137029841682e-05
1.194,-2.0519807444374896e-05
1.195,-2.1160218134004292e-05
1.196,-2.0312013041603314e-05
1.197,-1.9102156431114177e-05
1.198,-1.6873374378496058e-05
1.199,-1.528102347566141e-05
1.2,-1.4588665149956967e-05
1.201,-1.3562752822017732e-05
1.202,-1.256692894263663e-05
1.203,-1.0956470885316811e-05
1.204,-8.973414503085738e-06
1.205,-9.942822737380083e-06
1.206,-9.870559839292736e-06
1.207,-9.942789802070196e-06
1.208,-1.1427254207844197e-05
1.209,-1.1876215651795547e-05
1.21,-1.4930794565724269e-05
1.211,-1.4726294921834793e-05
1.212,-1.3498020726770156e-05
1.213,-1.6987039412893764e-05
1.214,-1.8345354550815e-05
1.215,-1.7540008034175943e-05
1.216,-1.6555735330353587e-05
1.217,-1.609593643502028e-05
1.218,-1.4981886276672577e-05
1.219,-1.6050275856111615e-05
1.22,-1.7649333177168214e-05
1.221,-1.6133905847108057e-05
1.222,-1.4559982411144282e-05
1.223,-1.4079178072313326e-05
1.224,-1.3933708057175942e-05
1.225,-1.3452319133677715e-05
1.226,-1.3047552193867065e-05
1.227,-1.3914576249283404e-05
1.228,-1.3731679873284042e-05
1.229,-1.3762345322941672e-05
1.23,-1.6558679070012396e-05
1.231,-1.6965845020697595e-05
1.232,-1.642705558093634e-05
1.233,-1.7088629521210842e-05
1.234,-1.7304628396125522e-05
1.235,-1.7440634273919227e-05
1.236,-1.7876325141834395e-05
1.237,-1.7306630786277066e-05
1.238,-1.5941398209605273e-05
1.239,-1.7603646854826316e-05
1.24,-1.9126634788152482e-05
1.241,-1.585007339789984e-05
1.242,-1.3515908519272062e-05
1.243,-1.4264122308141426e-05
1.244,-1.4228999271910749e-05
1.245,-1.3536243049775815e-05
1.246,-1.2701233910909872e-05
1.247,-1.0128590642031998e-05
1.248,-9.31305767324163e-06
1.249,-1.1141593771108674e-05
1.25,-1.1396407416803128e-05
1.251,-1.125857974593779e-05
1.252,-9.811849583041448e-06
1.253,-9.346113733187632e-06
1.254,-9.660221788986088e-06
1.255,-7.963715909822211e-06
1.256,-5.777275328783385e-06
1.257,-4.731761782123985e-06
1.258,-5.565911807236925e-06
1.259,-5.222869599010441e-06
1.26,-4.745884580702729e-06
1.261,-4.273597355027346e-06
1.262,-4.935395559955143e-06
1.263,-5.947330756922889e-06
1.264,-4.809047014001332e-06
1.265,-6.802084522014316e-06
1.266,-8.689795358106908e-06
1.267,-1.0518955355252085e-05
1.268,-1.4422990769592831e-05
1.269,-1.5326577294127248e-05
1.27,-1.5551227996809577e-05
1.271,-2.002138023818513e-05
1.272,-2.3270430618195577e-05
1.273,-2.3546158254029545e-05
1.274,-2.4815021903070133e-05
1.275,-2.5964912062477542e-05
1.276,-2.580607668355568e-05
1.277,-2.54701058407994e-05
1.278,-2.5607040919029762e-05
1.279,-2.4680850472845578e-05
1.28,-2.3763670888689122e-05
1.281,-2.2729330179515567e-05
1.282,-2.0446745806051117e-05
1.283,-1.977380496038115e-05
1.284,-1.8152296097008943e-05
1.285,-1.630436694247918e-05
1.286,-1.8030845220951353e-05
1.287,-2.061158675300689e-05
1.288,-2.0607827448932022e-05
1.289,-2.016632871021874e-05
1.29,-2.082493752508619e-05
1.291,-2.1319049023992826e-05
1.292,-2.1588373128180623e-05
1.293,-2.168337638959971e-05
1.294,-2.1270798137816087e-05
1.295,-2.0037724028863547e-05
1.296,-2.0093832145222354e-05
1.297,-1.7571594495092712e-05
1.298,-1.532440431995252e-05
1.299,-1.5222789416711109e-05
1.3,-1.3549045931636975e-05
1.301,-1.2590769543462902e-05
1.302,-1.1233858461529252e-05
1.303,-1.1355606386950773e-05
1.304,-1.3118489836023126e-05
1.305,-9.765184795955343e-06
1.306,-8.015229636085042e-06
1.307,-1.0063596157932951e-05
1.308,-1.2181253676402598e-05
1.309,-1.5117629071534589e-05
1.31,-2.0304696124252325e-05
1.311,-2.176228607141619e-05
1.312,-1.720411121421273e-05
1.313,-1.8543943492834524e-05
1.314,-2.39013941526063e-05
1.315,-2.5206797637150027e-05
1.316,-2.6904806209189382e-05
1.317,-2.945644064314326e-05
1.318,-2.9839502451552336e-05
1.319,-3.0347418388973758e-05
1.32,-3.0486742003400497e-05
1.321,-3.06736646665327e-05
1.322,-3.1029977486439756e-05
1.323,-3.0578967444423696e-05
1.324,-2.9941722429307213e-05
1.325,-2.823426208297042e-05
1.326,-2.746581093803352e-05
1.327,-2.5538397869230236e-05
1.328,-2.444781518463239e-05
1.329,-2.4585817292762296e-05
1.33,-2.2543298529681838e-05
1.331,-2.371407676968471e-05
1.332,-2.439883542029873e-05
1.333,-2.110874891250953e-05
1.334,-1.726833873894503e-05
1.335,-1.5117176390326546e-05
1.336,-1.3810159361500033e-05
1.337,-1.1616225844279544e-05
1.338,-9.01552892302024e-06
1.339,-7.295246580153614e-06
1.34,-6.944344095218196e-06
1.341,-5.847716469179391e-06
1.342,-4.880209198474564e-06
1.343,-5.101038919929863e-06
1.344,-6.349108699523573e-06
1.345,-7.539638524596826e-06
1.346,-9.262417036607035e-06
1.347,-1.328183682649421e-05
1.348,-1.6538716676744724e-05
1.349,-2.0553755407052626e-05
1.35,-2.5332318830523107e-05
1.351,-2.9770147531767284e-05
1.352,-3.4959499563616435e-05
1.353,-4.0195215536328406e-05
1.354,-4.408021607311611e-05
1.355,-4.723001048308243e-05
1.356,-5.077590342443759e-05
1.357,-5.196672212354479e-05
1.358,-5.226903649299107e-05
1.359,-5.326599305474307e-05
1.36,-5.2755015937404586e-05
1.361,-5.124473111538133e-05
1.362,-4.8851533282440895e-05
1.363,-4.6496232174591195e-05
1.364,-4.340118534948466e-05
1.365,-3.8988250811050836e-05
1.366,-3.437778336541157e-05
1.367,-2.9188764847142342e-05
1.368,-2.3740014546411137e-05
1.369,-1.9052287592834692e-05
1.37,-1.3850950570234476e-05
1.371,-7.668838157920729e-06
1.372,-9.48851753633268e-07
1.373,6.954133815294277e-06
1.374,1.5172435753795394e-05
1.375,2.252608356013958e-05
1.376,3.0024844125194974e-05
1.377,3.707174693998933e-05
1.378,4.286794299019354e-05
1.379,4.77185785601333e-05
1.38,4.703923780243723e-05
1.381,4.6562419043468076e-05
1.382,4.914346935577735e-05
1.383,4.976541535024377e-05
1.384,5.03421956893805e-05
1.385,5.0619917524309904e-05
1.386,4.717591510702765e-05
1.387,4.2215570479937536e-05
1.388,3.806704698208271e-05
1.389,2.907426879815615e-05
1.39,1.9688636914291587e-05
1.391,1.52600887993393e-05
1.392,1.1528174657429169e-05
1.393,5.613830634246711e-06
1.394,-7.875223257858569e-07
1.395,-3.8110319365356923e-06
1.396,-3.7252506007955936e-06
1.397,-2.3256861631485126e-07
1.398,1.13274100785971e-06
1.399,-9.13456518650848e-08
1.4,-1.8868392741822564e-07
1.401,4.4221664656491307e-07
1.402,1.0960045565066498e-06
1.403,1.4682745077660908e-06
1.404,3.4626951143631766e-06
1.405,2.9969182277584043e-06
1.406,1.0068387239935072e-06
1.407,3.489358828176138e-07
1.408,5.006098771568758e-07
1.409,-4.4138789927074335e-07
1.41,-1.264161177577731e-06
1.411,-2.2431016962873504e-06
1.412,-3.347040536097461e-06
1.413,-5.643562917256464e-06
1.414,-8.003938965453193e-06
1.415,-8.907182955347891e-06
1.416,-1.144285915610418e-05
1.417,-1.4612392456838825e-05
1.418,-1.632880212113282e-05
1.419,-1.631494126502991e-05
1.42,-1.9700476782492747e-05
1.421,-2.3817969695423252e-05
1.422,-2.639850237135653e-05
1.423,-2.6067338799312084e-05
1.424,-2.6640093920900512e-05
1.425,-2.9319829629720342e-05
1.426,-3.0995394973288055e-05
1.427,-3.834119687037149e-05
1.428,-4.5618438819124276e-05
1.429,-4.8377713753590805e-05
1.43,-4.886269864076364e-05
1.431,-5.161458641757951e-05
1.432,-5.3776816495829886e-05
1.433,-5.7499635515436154e-05
1.434,-6.16440379720217e-05
1.435,-6.028469968513654e-05
1.436,-6.201161918340224e-05
1.437,-6.453031249650729e-05
1.438,-6.616055231944603e-05
1.439,-6.593378836738513e-05
1.44,-6.558951731394542e-05
1.441,-6.557097483440844e-05
1.442,-6.612058858704962e-05
1.443,-6.637565290857275e-05
1.444,-6.48646614815198e-05
1.445,-6.50046658155571e-05
1.446,-6.329992202044887e-05
1.447,-6.344195666934296e-05
1.448,-6.411103780517862e-05
1.449,-6.147889386916117e-05
1.45,-6.021239590605807e-05
1.451,-5.8177819611038166e-05
1.452,-5.6045243546123904e-05
1.453,-5.3792624239270487e-05
1.454,-5.090911950055132e-05
1.455,-4.829730514992121e-05
1.456,-4.527404013699421e-05
1.457,-4.166986984449055e-05
1.458,-3.932700379674775e-05
1.459,-3.719604746086943e-05
1.46,-3.393179402058176e-05
1.461,-3.078847830433649e-05
1.462,-2.8114951788826615e-05
1.463,-2.6150249015338835e-05
1.464,-2.4719980573521983e-05
1.465,-2.4033909368478504e-05
1.466,-2.2884952831373447e-05
1.467,-2.2049715246796433e-05
1.468,-2.199050508474744e-05
1.469,-2.115864687801908e-05
1.47,-2.1598770163200442e-05
1.471,-2.2653661919392583e-05
1.472,-2.3569213384750188e-05
1.473,-2.3998982722707426e-05
1.474,-2.5007932822433178e-05
1.475,-2.5874984968436955e-05
1.476,-2.4494146300738237e-05
1.477,-2.5874110455503762e-05
1.478,-2.6536382636807826e-05
1.479,-2.561212765683037e-05
1.48,-2.5538067619673155e-05
1.481,-2.5151852163703233e-05
1.482,-2.2587378853585712e-05
1.483,-2.0570548804547425e-05
1.484,-2.2915901917167934e-05
1.485,-2.372449091821406e-05
1.486,-2.6083231841956956e-05
1.487,-2.6365822356470947e-05
1.488,-2.283516263065626e-05
1.489,-2.434706154681025e-05
1.49,-2.5554878907710794e-05
1.491,-2.5814654950395734e-05
1.492,-2.579022193197625e-05
1.493,-2.355778467204245e-05
1.494,-2.3309498915700376e-05
1.495,-2.2155664597990404e-05
1.496,-2.1125277434705067e-05
1.497,-2.1464834905258895e-05
1.498,-2.0435457203869067e-05
1.499,-1.8408544473377077e-05
1.5,-1.7660333241954133e-05
1.501,-1.856582385433778e-05
1.502,-1.649261628872161e-05
1.503,-1.379520762036237e-05
1.504,-1.3510268780006569e-05
1.505,-1.4353334284134309e-05
1.506,-1.5217213994491374e-05
1.507,-1.627228225934609e-05
1.508,-1.696863131471367e-05
1.509,-1.743990828848383e-05
1.51,-1.910850416094586e-05
1.511,-2.1291642617102658e-05
1.512,-2.3207837997084962e-05
1.513,-2.4383161675361128e-05
1.514,-2.4856777723166355e-05
1.515,-2.6385279336330043e-05
1.516,-2.614547034568201e-05
1.517,-2.503538034866093e-05
1.518,-2.5573463912135026e-05
1.519,-2.609609864278817e-05
1.52,-2.5853648347720276e-05
1.521,-2.4205482018391973e-05
1.522,-2.2114425649220997e-05
1.523,-1.9141164365754292e-05
1.524,-1.9639103828508687e-05
1.525,-2.0350143925034034e-05
1.526,-2.1001720387842357e-05
1.527,-2.1405341078428294e-05
1.528,-1.875669604455036e-05
1.529,-2.0337268506868197e-05
1.53,-2.0417232306463784e-05
1.531,-2.02593035043563e-05
1.532,-2.0823130751548888e-05
1.533,-1.9069768216531397e-05
1.534,-2.046577954135216e-05
1.535,-2.248657029944068e-05
1.536,-2.1918634239974717e-05
1.537,-2.2060515986312605e-05
1.538,-2.2722427780320393e-05
1.539,-2.132459671337478e-05
1.54,-2.0894547803481918e-05
1.541,-2.1363634535870955e-05
1.542,-2.1863201718143793e-05
1.543,-1.9320798715961854e-05
1.544,-1.6456851370187263e-05
1.545,-1.7382149488069737e-05
1.546,-1.879641922437394e-05
1.547,-1.968813497056013e-05
1.548,-1.9835595256446506e-05
1.549,-2.000915483040155e-05
1.55,-2.0074383885108734e-05
1.551,-2.0295827548255526e-05
1.552,-2.064097411422326e-05
1.553,-2.0684015577896297e-05
1.554,-2.130900140028155e-05
1.555,-2.2712044427484497e-05
1.556,-2.1502330793127656e-05
1.557,-2.000180427401737e-05
1.558,-1.9743528184551547e-05
1.559,-1.8568861323230145e-05
1.56,-1.8123705451049857e-05
1.561,-1.7954178211850663e-05
1.562,-1.7202127613633367e-05
1.563,-1.660092583757279e-05
1.564,-1.6871958860922728e-05
1.565,-1.6822166015513842e-05
1.566,-1.694288603652277e-05
1.567,-1.7410142735991115e-05
1.568,-1.758636607080218e-05
1.569,-1.8623406374114488e-05
1.57,-1.9966574294662493e-05
1.571,-2.075933874785734e-05
1.572,-2.094824973923128e-05
1.573,-2.148762873403761e-05
1.574,-2.24435887903287e-05
1.575,-2.279700818893972e-05
1.576,-2.2145178959499267e-05
1.577,-2.2001976189292184e-05
1.578,-2.0596533380536553e-05
1.579,-1.8570550010944744e-05
1.58,-1.8874486317021395e-05
1.581,-1.9663004778931114e-05
1.582,-1.5790087812002024e-05
1.583,-1.3204290057215066e-05
1.584,-1.564456867543415e-05
1.585,-1.5437077684774505e-05
1.586,-1.439321822095272e-05
1.587,-1.2609114774774822e-05
1.588,-1.486654975709888e-05
1.589,-1.5435248466277013e-05
1.59,-1.3476277224075245e-05
1.591,-1.53462115636115e-05
1.592,-1.4001659075973473e-05
1.593,-1.3603689766710817e-05
1.594,-1.3221738526359113e-05
1.595,-1.3336598353613402e-05
1.596,-1.1942213967449541e-05
1.597,-1.1746104513886433e-05
1.598,-1.516837961268981e-05
1.599,-1.3039451812190437e-05
1.6,-1.0896677131160959e-05
1.601,-9.380261267454166e-06
1.602,-8.628841951998754e-06
1.603,-1.177519073255048e-05
1.604,-1.2642466978394723e-05
1.605,-1.1041404093283046e-05
1.606,-1.0768717895328317e-05
1.607,-1.0906908561080005e-05
1.608,-1.122549189382956e-05
1.609,-1.2383556079556744e-05
1.61,-1.1833410046655462e-05
1.611,-1.2024981645459718e-05
1.612,-1.2810548582037955e-05
1.613,-1.2049349712879856e-05
1.614,-1.2711632424573121e-05
1.615,-1.2681742696688998e-05
1.616,-1.2059953273872716e-05
1.617,-1.1262843699197606e-05
1.618,-9.72218249061314e-06
1.619,-8.98240342781466e-06
1.62,-6.696901210432865e-06
1.621,-4.923483903652318e-06
1.622,-4.1193998819217105e-06
1.623,-3.436397744582913e-06
1.624,-4.316275023272462e-06
1.625,-5.6873256983429395e-06
1.626,-3.362011983175614e-06
1.627,4.6392938733340053e-07
1.628,-9.891289956482447e-07
1.629,-1.5867649307031107e-06
1.63,-2.3838086351523207e-06
1.631,-4.92857042321106e-06
1.632,-5.767592420576365e-06
1.633,-4.150476209400756e-06
1.634,-4.334334552474472e-06
1.635,-4.287454541204464e-06
1.636,-4.891837733082125e-06
1.637,-6.844392452981951e-06
1.638,-3.5566838111773556e-06
1.639,-4.053285568566542e-06
1.64,-5.4689114439853386e-06
1.641,-3.7446190358519566e-06
1.642,-2.4234662104637986e-06
1.643,-9.460493977719392e-07
1.644,-1.5463611332584004e-06
1.645,-3.3483698191886985e-06
1.646,-4.0636515474186785e-06
1.647,-3.190299147967757e-06
1.648,-9.132076373848525e-07
1.649,1.1942998051916844e-06
1.65,-4.323277830479172e-07
1.651,-2.5525612197037835e-06
1.652,-1.7250079034423161e-06
1.653,-1.0117348205479965e-06
1.654,-1.8822697025733832e-06
1.655,-2.9168841257453283e-06
1.656,-2.408832754516842e-06
1.657,-1.1653249379233858e-06
1.658,-7.1285289376499255e-09
1.659,1.0331609019955098e-06
1.66,1.5140222760035482e-06
1.661,2.6888053219366957e-06
1.662,3.6100564696832074e-06
1.663,4.43395791520136e-06
1.664,3.6244519100088274e-06
1.665,4.356652210028936e-06
1.666,4.219213010070651e-06
1.667,4.115425957031087e-06
1.668,5.5629382689047185e-06
1.669,4.092117745629525e-06
1.67,3.543220710917924e-06
1.671,2.3626340918256925e-06
1.672,1.1985518105767354e-06
1.673,5.964998538627753e-07
1.674,-6.048614155839946e-07
1.675,-9.772562818971278e-07
1.676,-1.9052984511422484e-06
1.677,-1.587744160539284e-06
1.678,-7.373771989000023e-07
1.679,2.045845024401527e-08
1.68,-1.494678817060363e-07
1.681,-8.8865640413692e-07
1.682,2.593305391497811e-07
1.683,1.9532561102626237e-06
1.684,2.658349821552152e-06
1.685,2.14979883151787e-06
1.686,8.152501372509475e-07
1.687,1.0560801103425964e-06
1.688,1.387307349862778e-06
1.689,3.61563293651189e-08
1.69,-1.3605899063446566e-06
1.691,-2.56019231328239e-06
1.692,-2.51816527254825e-06
1.693,-2.3926853575063035e-06
1.694,-3.1487721884040145e-06
1.695,-4.2618356246189906e-06
1.696,-4.3202442261001895e-06
1.697,-5.3266639158515915e-06
1.698,-5.098034022770753e-06
1.699,-2.564178968168043e-06
1.7,-1.9651851319793516e-06
1.701,6.522087679908677e-07
1.702,2.0388645860645953e-06
1.703,-5.522640363624608e-07
1.704,-2.618298945976063e-07
1.705,1.579610820271251e-06
1.706,1.2543513830059802e-06
1.707,-1.8409225765621141e-06
1.708,-2.094943372154053e-06
1.709,1.6962263329451874e-08
1.71,-1.5695511837886826e-06
1.711,-3.7112823234019433e-06
1.712,-5.1615927602732594e-06
1.713,-6.274794283971469e-06
1.714,-6.9103898175374565e-06
1.715,-5.336760446793617e-06
1.716,-4.933946231700124e-06
1.717,-7.795258001264058e-06
1.718,-8.227572237068207e-06
1.719,-5.750290270586005e-06
1.72,-4.893073782595387e-06
1.721,-6.692588257994596e-06
1.722,-5.1885829440003334e-06
1.723,-5.319700515900475e-06
1.724,-6.519435731112264e-06
1.725,-3.912647256610958e-06
1.726,-4.812972001727485e-06
1.727,-5.321401971124421e-06
1.728,-5.126168537420675e-06
1.729,-6.70394932403907e-06
1.73,-7.222281247122073e-06
1.731,-7.542942580939025e-06
1.732,-8.02596905114003e-06
1.733,-8.233903611345272e-06
1.734,-8.435853278156251e-06
1.735,-9.010941966269998e-06
1.736,-9.450804393663423e-06
1.737,-9.56085757532618e-06
1.738,-8.560204486522937e-06
1.739,-7.0801578109408965e-06
1.74,-7.2615074047670595e-06
1.741,-7.150780007543042e-06
1.742,-6.6958415874742805e-06
1.743,-5.941261454211837e-06
1.744,-5.623885981129988e-06
1.745,-6.56905535642883e-06
1.746,-7.587840281310467e-06
1.747,-7.575582076336518e-06
1.748,-8.311897962789731e-06
1.749,-1.0162174848726496e-05
1.75,-1.1680432946838889e-05
1.751,-1.3613308584607376e-05
1.752,-1.3304796356279206e-05
1.753,-1.4001314922662648e-05
1.754,-1.6456625763148502e-05
1.755,-1.583614363016329e-05
1.756,-1.4320230722173275e-05
1.757,-1.4706158858800256e-05
1.758,-1.5108546644215247e-05
1.759,-1.1858220233246784e-05
1.76,-1.059959350561982e-05
1.761,-8.886802262047902e-06
1.762,-7.578944284755558e-06
1.763,-9.734861569704391e-06
1.764,-9.607944640251663e-06
1.765,-9.441437362734176e-06
1.766,-8.86467415643141e-06
1.767,-9.490594263520729e-06
1.768,-9.314758040503407e-06
1.769,-9.81594937613026e-06
1.77,-1.0158299683850491e-05
1.771,-1.0494726565112941e-05
1.772,-1.2871357706433207e-05
1.773,-1.1832519485833788e-05
1.774,-1.1725818752345387e-05
1.775,-1.3106840109010427e-05
1.776,-1.5043020290903436e-05
1.777,-1.7016342062135233e-05
1.778,-1.4224604663218272e-05
1.779,-1.17811651993546e-05
1.78,-1.2613192278145984e-05
1.781,-1.285861558506205e-05
1.782,-1.2162079279526117e-05
1.783,-1.0770301217063326e-05
1.784,-1.042729506973797e-05
1.785,-1.0769923210349632e-05
1.786,-1.1624213795096775e-05
1.787,-1.0502799231842197e-05
1.788,-9.003722592120028e-06
1.789,-1.2610724260363993e-05
1.79,-1.4294976232306931e-05
1.791,-1.4218090010979468e-05
1.792,-1.5036099698709916e-05
1.793,-1.6204026679944345e-05
1.794,-1.778057543991434e-05
1.795,-1.6032497059554847e-05
1.796,-1.4238189011527936e-05
1.797,-1.3790173931359156e-05
1.798,-1.3496208860687401e-05
1.799,-1.3578909494777058e-05
1.8,-1.2873918303718357e-05
1.801,-1.1226787028380176e-05
1.802,-9.488869230463093e-06
1.803,-9.212615146746176e-06
1.804,-9.946719680063806e-06
1.805,-8.931589258027889e-06
1.806,-7.495563049225465e-06
1.807,-8.652251573204908e-06
1.808,-9.799248104057471e-06
1.809,-1.081833589752309e-05
1.81,-1.1077170024845834e-05
1.811,-1.0732270487660939e-05
1.812,-1.2633037126916109e-05
1.813,-1.3026398886244212e-05
1.814,-1.276164976355289e-05
1.815,-1.3395007128244345e-05
1.816,-1.3093456594535516e-05
1.817,-1.3637518518315365e-05
1.818,-1.5322677485641572e-05
1.819,-1.5459347484034076e-05
1.82,-1.5471388943110037e-05
1.821,-1.609333545304335e-05
1.822,-1.2566613848177e-05
1.823,-1.0735139142409816e-05
1.824,-1.3340725929109677e-05
1.825,-1.1218774404260014e-05
1.826,-8.39466050190219e-06
1.827,-7.981188549950359e-06
1.828,-9.977358339763904e-06
1.829,-1.1768567029594348e-05
1.83,-1.0728222822303151e-05
1.831,-1.152060603443127e-05
1.832,-1.2404687991544455e-05
1.833,-1.3038521574662654e-05
1.834,-1.3983758853599304e-05
1.835,-1.4309836983323432e-05
1.836,-1.4397404980746754e-05
1.837,-1.3740638205081458e-05
1.838,-1.3948197160528178e-05
1.839,-1.1942721900702241e-05
1.84,-1.0258899604549368e-05
1.841,-1.0340286359051393e-05
1.842,-8.335190568735026e-06
1.843,-7.1920220636856994e-06
1.844,-7.354568103535557e-06
1.845,-6.4576691226778885e-06
1.846,-7.223731730556954e-06
1.847,-7.16043729655732e-06
1.848,-5.859888888971515e-06
1.849,-6.599298524633117e-06
1.85,-8.543164321149243e-06
1.851,-9.346738179183756e-06
1.852,-1.0460453801726731e-05
1.853,-1.0434885267708293e-05
1.854,-1.1125748152154906e-05
1.855,-1.0598444487413314e-05
1.856,-9.631691246475173e-06
1.857,-1.2919856260048196e-05
1.858,-1.2173747793639042e-05
1.859,-1.0719752849438083e-05
1.86,-1.0197380356227414e-05
1.861,-8.155423168864049e-06
1.862,-7.747091789450861e-06
1.863,-7.724579192661764e-06
1.864,-8.833579361903132e-06
1.865,-8.308295488877211e-06
1.866,-9.167435395878348e-06
1.867,-9.91160473814771e-06
1.868,-9.522380791836293e-06
1.869,-1.1063192996904037e-05
1.87,-1.048196566022594e-05
1.871,-1.4115309577998508e-05
1.872,-1.6493898987757642e-05
1.873,-1.4848552763385648e-05
1.874,-1.5316465639078965e-05
1.875,-1.5147013843961285e-05
1.876,-1.5506592304859897e-05
1.877,-1.488202482616859e-05
1.878,-1.3982216747090785e-05
1.879,-1.523787964721295e-05
1.88,-1.609933475112286e-05
1.881,-1.3532579111288519e-05
1.882,-1.0113959662546945e-05
1.883,-8.323929578745598e-06
1.884,-8.140446724925635e-06
1.885,-7.73260723912327e-06
1.886,-6.35508518744922e-06
1.887,-5.043873861479962e-06
1.888,-4.71370274381167e-06
1.889,-5.157347966058505e-06
1.89,-5.346878030856225e-06
1.891,-6.83669735423325e-06
1.892,-8.368084779307925e-06
1.893,-1.0474788246358475e-05
1.894,-1.2789143067336251e-05
1.895,-1.1848138469564957e-05
1.896,-1.0398869070802098e-05
1.897,-1.2902873294998039e-05
1.898,-1.4738972892562736e-05
1.899,-1.600437567698656e-05
1.9,-1.61139729175415e-05
1.901,-1.3497937120765148e-05
1.902,-1.1697888366628647e-05
1.903,-1.216203233222179e-05
1.904,-1.2539767756457879e-05
1.905,-1.1776306461513156e-05
1.906,-1.4207841060087445e-05
1.907,-1.1157735257450136e-05
1.908,-9.53410540141399e-06
1.909,-1.2429020304005384e-05
1.91,-1.12193834298027e-05
1.911,-1.1569393420143352e-05
1.912,-1.2334322150746435e-05
1.913,-1.3765219481282576e-05
1.914,-1.5014063250767815e-05
1.915,-1.6538830687196865e-05
1.916,-1.5507977246835337e-05
1.917,-1.3503869834157084e-05
1.918,-1.3624827197543575e-05
1.919,-1.3585560448291613e-05
1.92,-1.2915967140703483e-05
1.921,-1.1058397219422632e-05
1.922,-1.0463662014366782e-05
1.923,-1.078618317524717e-05
1.924,-9.778764520327754e-06
1.925,-8.687507694864959e-06
1.926,-1.044737853787578e-05
1.927,-1.0378866535389668e-05
1.928,-9.586071101472172e-06
1.929,-1.105640646410934e-05
1.93,-1.046195574666716e-05
1.931,-1.0062340453531545e-05
1.932,-9.50882035160287e-06
1.933,-9.549215760649133e-06
1.934,-1.2433161812841549e-05
1.935,-1.2917170593063815e-05
1.936,-1.266899566533351e-05
1.937,-1.40708625741551e-05
1.938,-1.0421241700699764e-05
1.939,-1.0734985201888314e-05
1.94,-1.2441813242995242e-05
1.941,-1.2483300080287844e-05
1.942,-1.2708661252058688e-05
1.943,-1.1169764091180282e-05
1.944,-1.1015862788605099e-05
1.945,-8.188588259227886e-06
1.946,-6.017698987274657e-06
1.947,-7.518024039802349e-06
1.948,-7.78791080667683e-06
1.949,-6.6093394177033945e-06
1.95,-7.749698119460678e-06
1.951,-8.16504586865701e-06
1.952,-9.40453685205391e-06
1.953,-1.0815561871267651e-05
1.954,-1.0449085758787278e-05
1.955,-1.0964636137513412e-05
1.956,-1.1134429695991734e-05
1.957,-1.1346205085982069e-05
1.958,-1.0604458706928455e-05
1.959,-8.829938701372839e-06
1.96,-6.957427842363865e-06
1.961,-5.732020283968904e-06
1.962,-4.804252950723959e-06
1.963,-4.424573913311729e-06
1.964,-4.437704930641964e-06
1.965,-3.877475434273759e-06
1.966,-3.9626679274764226e-06
1.967,-4.794323052415226e-06
1.968,-5.154814832745332e-06
1.969,-5.608835840416013e-06
1.97,-7.0062446703174844e-06
1.971,-8.386542351292812e-06
1.972,-8.484578435562022e-06
1.973,-8.53695800387829e-06
1.974,-8.088540837936533e-06
1.975,-6.0984019928067095e-06
1.976,-8.544661844116331e-06
1.977,-1.0327690396283821e-05
1.978,-7.571336583973096e-06
1.979,-8.622014990889294e-06
1.98,-8.145682775488966e-06
1.981,-4.922939600249952e-06
1.982,-1.7426638442657136e-06
1.983,2.105258111239335e-06
1.984,4.237460236686163e-06
1.985,3.884201325837857e-06
1.986,5.2953956434176445e-06
1.987,6.34501266969008e-06
1.988,2.4334346145395094e-06
1.989,1.7875455305327346e-06
1.99,3.5853311758954065e-07
1.991,-3.8240579094102197e-07
1.992,-1.5500723270579395e-06
1.993,-5.752444156645248e-06
1.994,-6.39837726969609e-06
1.995,-1.0805135992428858e-05
1.996,-1.1505074256527069e-05
1.997,-1.0250872235679257e-05
1.998,-1.2118868841516131e-05
1.999,-1.1410209282594939e-05
2.0,-1.2149730955306359e-05
2.001,-1.3082721009463975e-05
2.002,-1.3569875155609856e-05
2.003,-1.1580951186781006e-05
2.004,-1.0587726960378193e-05
2.005,-1.0756930523971658e-05
2.006,-1.044380459219903e-05
2.007,-1.0486899696108268e-05
2.008,-1.16045669982501e-05
2.009,-1.2893455224273799e-05
2.01,-1.0729122687065771e-05
2.011,-1.1068673715812073e-05
2.012,-1.3355138328792028e-05
2.013,-1.532315284191139e-05
2.014,-1.4405382431132428e-05
2.015,-1.413906517341947e-05
2.016,-1.5772056037909648e-05
2.017,-1.5567808028590312e-05
2.018,-1.5008839724535826e-05
2.019,-1.4698392224332932e-05
2.02,-1.3960158422154515e-05
2.021,-1.1936155669707905e-05
2.022,-1.1382990642042335e-05
2.023,-1.006691527673971e-05
2.024,-6.458180569423498e-06
2.025,-3.925250686382793e-06
2.026,-3.329438497552155e-06
2.027,-3.2204661764791822e-06
2.028,-4.033347497512255e-06
2.029,-4.586843336196417e-06
2.03,-5.58357383455192e-06
2.031,-5.7116971070652254e-06
2.032,-5.547903046602326e-06
2.033,-5.26133818879444e-06
2.034,-3.7179871368068634e-06
2.035,-4.784996797183217e-06
2.036,-4.434445419487445e-06
2.037,-5.04612730661552e-06
2.038,-8.509038752406748e-06
2.039,-9.42139923992873e-06
2.04,-9.789208675603392e-06
2.041,-1.1623508998611451e-05
2.042,-1.2036669297918973e-05
2.043,-1.2238131634768763e-05
2.044,-1.3530127417690796e-05
2.045,-1.5003893294222091e-05
2.046,-1.6836878416440565e-05
2.047,-1.8491344645988296e-05
2.048,-2.1114626293611293e-05
2.049,-2.1641149491124075e-05
2.05,-2.2396129781318566e-05
2.051,-2.480068821924015e-05
2.052,-2.4777969348826732e-05
2.053,-2.52597250807659e-05
2.054,-2.5392759423283465e-05
2.055,-2.384461802510656e-05
2.056,-2.3707955716718088e-05
2.057,-2.230312087386511e-05
2.058,-1.8278648044184192e-05
2.059,-1.600953570077176e-05
2.06,-1.1993386659692713e-05
2.061,-9.044685385272152e-06
2.062,-7.487660070162154e-06
2.063,-3.6483110509518083e-06
2.064,-1.4462675909641871e-06
2.065,9.128458100983422e-07
2.066,3.543896870987487e-06
2.067,5.587054147170182e-06
2.068,5.310538243598016e-06
2.069,5.611126388725779e-06
2.07,3.7124276710118046e-06
2.071,-2.438849862495457e-06
2.072,-2.6782374177976396e-06
2.073,-4.129904304057223e-06
2.074,-8.013484363913804e-06
2.075,-9.850670480010857e-06
2.076,-1.567095559509581e-05
2.077,-1.9515997162892123e-05
2.078,-2.0642231179830175e-05
2.079,-2.3821547152760448e-05
2.08,-2.7340038192951334e-05
2.081,-2.92950407773877e-05
2.082,-3.23908566659759e-05
2.083,-3.5133687241287747e-05
2.084,-3.682639428402118e-05
2.085,-3.7763722330981e-05
2.086,-3.672857384583153e-05
2.087,-3.808982343823035e-05
2.088,-4.1102001314452684e-05
2.089,-4.1106984146403324e-05
2.09,-3.9737622358211274e-05
2.091,-3.822302702401238e-05
2.092,-3.589505754077409e-05
2.093,-3.2895411208938674e-05
2.094,-2.898263208658665e-05
2.095,-2.4438337880033097e-05
2.096,-1.9072012839978754e-05
2.097,-1.602382775101266e-05
2.098,-8.565115043739241e-06
2.099,2.4036675105268516e-06
2.1,1.0857426261324435e-05
2.101,1.9253092939900737e-05
2.102,2.7237975986011556e-05
2.103,3.5159161486856487e-05
2.104,4.127322125264975e-05
2.105,4.6355449938597426e-05
2.106,5.1107887362256933e-05
2.107,5.416548312124837e-05
2.108,5.4899918878950384e-05
2.109,5.482080448590894e-05
2.11,5.417418874060898e-05
2.111,5.153855323107858e-05
2.112,4.991866737011322e-05
2.113,5.0337855340163575e-05
2.114,4.7129345775157566e-05
2.115,4.3227432324658e-05
2.116,3.785916353394473e-05
2.117,2.9537205907615345e-05
2.118,2.3354392917372924e-05
2.119,1.8180298649316806e-05
2.12,1.3659975241015032e-05
2.121,8.914787868415433e-06
2.122,8.445089662250678e-06
2.123,9.934319699413839e-06
2.124,8.353994792045098e-06
2.125,8.669009984758523e-06
2.126,1.0142667498714482e-05
2.127,7.040917267009074e-06
2.128,2.8354063145656416e-06
2.129,2.2050862175184805e-06
2.13,1.536301288566909e-06
2.131,1.1214566099913352e-06
2.132,1.256526156261685e-06
2.133,1.2377904031378424e-06
2.134,5.582768746578329e-07
2.135,-3.4955923201928975e-06
2.136,-2.3466675179714597e-06
2.137,-1.1286533813694725e-06
2.138,-1.9863291626641438e-06
2.139,-1.3742854603032277e-06
2.14,-1.85422504949007e-06
2.141,-4.910417471203993e-07
2.142,-6.480368700465783e-07
2.143,-6.817420809708028e-07
2.144,-1.636878412448009e-06
2.145,-6.741987071689331e-06
2.146,-1.1506216969447123e-05
2.147,-1.2517651308988232e-05
2.148,-1.4643410917257291e-05
2.149,-1.7831599599054312e-05
2.15,-2.091497391613667e-05
2.151,-2.5316044943576655e-05
2.152,-2.9053170614064324e-05
2.153,-3.2347089666286725e-05
2.154,-3.532729339103642e-05
2.155,-3.893763554952803e-05
2.156,-4.1040644395044046e-05
2.157,-4.352011809358512e-05
2.158,-4.4181745015433896e-05
2.159,-4.44516779901427e-05
2.16,-4.6273188443329973e-05
2.161,-4.730171304784224e-05
2.162,-4.879876364067896e-05
2.163,-4.962528486937011e-05
2.164,-5.003510178234918e-05
2.165,-5.0669095239203465e-05
2.166,-5.2050676526568596e-05
2.167,-5.218300997064495e-05
2.168,-5.354826523262062e-05
2.169,-5.620898539045033e-05
2.17,-5.8311451764626946e-05
2.171,-5.989073169093695e-05
2.172,-6.147693011849685e-05
2.173,-6.0902046268095916e-05
2.174,-5.950677448331542e-05
2.175,-6.064659013321892e-05
2.176,-5.9896527061899256e-05
2.177,-5.865417647265906e-05
2.178,-5.5140606476517787e-05
2.179,-5.119910050585642e-05
2.18,-4.8391822144401926e-05
2.181,-4.50947133492509e-05
2.182,-4.3891103160437566e-05
2.183,-4.1564628250708215e-05
2.184,-3.899213294695625e-05
2.185,-3.4437218170677924e-05
2.186,-2.924504588391257e-05
2.187,-2.843888417278846e-05
2.188,-2.8318709844352998e-05
2.189,-2.566198670529703e-05
2.19,-2.442652785072696e-05
2.191,-2.6455149715488593e-05
2.192,-2.5181653818070734e-05
2.193,-2.3737545734604408e-05
2.194,-2.415883211657044e-05
2.195,-2.2492232118923286e-05
2.196,-2.220019977238805e-05
2.197,-2.0864272652536466e-05
2.198,-1.918642799569532e-05
2.199,-1.998832394932538e-05
2.2,-1.8008511709298823e-05
2.201,-1.6597903580696533e-05
2.202,-1.631395308371236e-05
2.203,-1.6914129476665176e-05
2.204,-1.864933825088237e-05
2.205,-1.6557944622137216e-05
2.206,-1.5160998380258285e-05
2.207,-1.5659141494669548e-05
2.208,-1.6631516109511818e-05
2.209,-1.8436796029847247e-05
2.21,-1.991625848734829e-05
2.211,-2.199861496044361e-05
2.212,-2.2906149321477906e-05
2.213,-2.1761585062338143e-05
2.214,-2.2695032941924344e-05
2.215,-2.415036272924675e-05
2.216,-2.379039827924292e-05
2.217,-2.230044831556288e-05
2.218,-2.0789844772865908e-05
2.219,-2.1091350687314225e-05
2.22,-1.9958501837972007e-05
2.221,-1.7461140987600888e-05
2.222,-1.5479571862823797e-05
2.223,-1.3397885857060447e-05
2.224,-1.3997085992232108e-05
2.225,-1.5348643478176657e-05
2.226,-1.3009071785079268e-05
2.227,-1.0615997005491631e-05
2.228,-1.0586052345976573e-05
2.229,-1.0114744065810547e-05
2.23,-9.778244049874526e-06
2.231,-1.0836879418526115e-05
2.232,-1.2139930191301518e-05
2.233,-1.1031227409152268e-05
2.234,-1.3154977480093178e-05
2.235,-1.606122979036438e-05
2.236,-1.5610453959079984e-05
2.237,-1.4776794877195037e-05
2.238,-1.454971705986421e-05
2.239,-1.4733919997178e-05
2.24,-1.5147585709215541e-05
2.241,-1.4019190406023624e-05
2.242,-1.3083256866740351e-05
2.243,-1.357552847842053e-05
2.244,-1.2528099585112596e-05
2.245,-1.6465034843095293e-05
2.246,-1.6998953271643896e-05
2.247,-1.4528946814737241e-05
2.248,-1.524005959612629e-05
2.249,-1.4304387550697526e-05
2.25,-1.6283685909644993e-05
2.251,-1.7833211794623906e-05
2.252,-1.7806397365994935e-05
2.253,-1.885985908426987e-05
2.254,-2.0258209915243243e-05
2.255,-2.017815776423867e-05
2.256,-1.9511443478825016e-05
2.257,-1.8766288377960783e-05
2.258,-1.6967172673960964e-05
2.259,-1.6852937022354592e-05
2.26,-1.627337242260941e-05
2.261,-1.5084621193595572e-05
2.262,-1.4343837664101558e-05
2.263,-1.2903638586355485e-05
2.264,-1.120690157995313e-05
2.265,-1.1682441938407313e-05
2.266,-1.1842016324207486e-05
2.267,-1.2378974106088668e-05
2.268,-1.4668715870133149e-05
2.269,-1.547093989345034e-05
2.27,-1.7033478866510848e-05
2.271,-1.579736871319102e-05
2.272,-1.4702665098169272e-05
2.273,-1.5294443916725715e-05
2.274,-1.4928397910740902e-05
2.275,-1.5275475288045864e-05
2.276,-1.312509485423829e-05
2.277,-1.238660726133047e-05
2.278,-1.1588840470679718e-05
2.279,-9.677753002795368e-06
2.28,-1.0612402851864261e-05
2.281,-1.2359604978950254e-05
2.282,-1.1187779804996126e-05
2.283,-8.160576290255198e-06
2.284,-8.23087791438132e-06
2.285,-7.235765586779445e-06
2.286,-6.492921429046335e-06
2.287,-9.498820164354547e-06
2.288,-1.1528883832960231e-05
2.289,-1.1839587361199445e-05
2.29,-1.0872315465942369e-05
2.291,-1.035860369148188e-05
2.292,-1.1626264368876356e-05
2.293,-1.480581477942672e-05
2.294,-1.8636597861796e-05
2.295,-1.737201795308627e-05
2.296,-1.5783402041863527e-05
2.297,-1.676213212330889e-05
2.298,-1.631986317755998e-05
2.299,-1.7486827455861694e-05
2.3,-1.6108410922929438e-05
2.301,-1.2740353782037963e-05
2.302,-1.0243057837716443e-05
2.303,-1.0575566370137782e-05
2.304,-1.0989809285352031e-05
2.305,-1.0125675151704025e-05
2.306,-8.807385647969432e-06
2.307,-7.54151563156671e-06
2.308,-1.0716836698890014e-05
2.309,-1.1605980168830803e-05
2.31,-1.1768734865494943e-05
2.311,-1.205663369770708e-05
2.312,-1.1618356670632788e-05
2.313,-1.2305398952818593e-05
2.314,-1.1277428584455772e-05
2.315,-1.110679152754847e-05
2.316,-1.168170855958505e-05
2.317,-1.1107840248055379e-05
2.318,-9.10805975684737e-06
2.319,-7.3204522755649085e-06
2.32,-7.394736694818088e-06
2.321,-6.987462310766234e-06
2.322,-4.756455358474699e-06
2.323,-4.055065084605027e-06
2.324,-3.6267795931245136e-06
2.325,-4.500745932434489e-06
2.326,-4.188640489628023e-06
2.327,-1.8832035422025323e-06
2.328,-3.2585889009741315e-06
2.329,-5.172502052134622e-06
2.33,-6.36992554834213e-06
2.331,-6.388075744401492e-06
2.332,-6.162115431551331e-06
2.333,-6.831074098396045e-06
2.334,-7.743408404708117e-06
2.335,-7.861671664770146e-06
2.336,-7.765848926221008e-06
2.337,-8.75504477967585e-06
2.338,-7.447371371125405e-06
2.339,-5.6780583840457725e-06
2.34,-5.295977897871184e-06
2.341,-3.658928307786642e-06
2.342,-2.0281382511325357e-06
2.343,-2.5625225527207913e-06
2.344,-3.6132409610002992e-06
2.345,-1.119075470224576e-06
2.346,1.6969428256087092e-06
2.347,3.129352382418771e-06
2.348,2.0903747853529013e-06
2.349,1.1083400644983602e-06
2.35,1.6246043508124045e-06
2.351,-2.2107153905052496e-06
2.352,-3.743754340315471e-06
2.353,-3.1221590453259988e-06
2.354,-4.2000754155531524e-06
2.355,-3.74238335716976e-06
2.356,-8.277784490869043e-07
2.357,8.495778831061368e-07
2.358,-2.5200288070851743e-06
2.359,-4.660416747840715e-06
2.36,-2.5067020645838775e-06
2.361,9.855100092242483e-08
2.362,1.6098113775236895e-06
2.363,3.28322493788671e-06
2.364,3.780943383892671e-06
2.365,4.874701144084723e-06
2.366,5.7482875255866195e-06
2.367,5.5986807916401695e-06
2.368,5.835752878048942e-06
2.369,5.580603433175284e-06
2.37,4.762724366940313e-06
2.371,4.1163165706784425e-06
2.372,3.9761666838574825e-06
2.373,2.6735350448449374e-06
2.374,2.3325019964675573e-06
2.375,3.0671690851724263e-06
2.376,2.48001972489882e-06
2.377,5.061620140082517e-06
2.378,6.691698644562648e-06
2.379,5.44149428186545e-06
2.38,4.9771297174522905e-06
2.381,5.163652107517708e-06
2.382,5.969311017775229e-06
2.383,6.769612174953133e-06
2.384,7.450703247872287e-06
2.385,5.611711470038969e-06
2.386,4.565756520633861e-06
2.387,4.639495373269813e-06
2.388,4.071205436904217e-06
2.389,3.3075631616903776e-06
2.39,1.8994120655888014e-06
2.391,-5.030771143062774e-07
2.392,-5.553819598101209e-07
2.393,8.767554477149699e-07
2.394,-1.86459734918773e-07
2.395,1.2585594676044947e-06
2.396,3.7977203272334976e-06
2.397,5.39983071319195e-06
2.398,5.9188006953945095e-06
2.399,6.197286721538014e-06
2.4,7.071457277598849e-06
2.401,9.676446557940149e-06
2.402,1.0951991507114387e-05
2.403,6.3477248838646554e-06
2.404,5.827625236881347e-06
2.405,7.873201375159841e-06
2.406,8.58510680595566e-06
2.407,8.183027385761411e-06
2.408,4.503848817358968e-06
2.409,4.198273805908017e-06
2.41,4.426205831269017e-06
2.411,1.95133332126424e-06
2.412,6.354231872304744e-07
2.413,7.328589320360582e-07
2.414,2.4859333531209728e-06
2.415,1.6213317413639767e-06
2.416,4.481256843198701e-07
2.417,-1.425485718603313e-07
2.418,-9.761155224259837e-07
2.419,8.359494083417379e-09
2.42,-9.376626460868565e-07
2.421,-7.671963347381059e-07
2.422,1.5676063943070043e-06
2.423,1.5206117623433137e-06
2.424,1.156179774980582e-06
2.425,1.852531200076312e-06
2.426,2.4036893984388616e-06
2.427,3.3198220253864737e-06
2.428,1.725965281792237e-06
2.429,3.592716265179069e-07
2.43,1.0650652230511787e-06
2.431,-5.078960221977153e-07
2.432,-1.8124781727414274e-06
2.433,-2.708047104145083e-06
2.434,-4.3646821467034974e-06
2.435,-2.6663153351358772e-06
2.436,-1.7124920606248567e-06
2.437,-2.218585915556941e-06
2.438,-5.144529050343766e-07
2.439,-7.416629392404992e-07
2.44,2.504153440837001e-07
2.441,2.0092902673982985e-06
2.442,2.484325635978676e-06
2.443,1.8315381991868844e-06
2.444,1.917751427417376e-06
2.445,4.023709263672878e-06
2.446,2.045857909718242e-06
2.447,6.966356456690714e-07
2.448,-1.3967430415122725e-06
2.449,-3.494876626645955e-06
2.45,-1.849875007353536e-06
2.451,-2.5097989364481474e-06
2.452,-4.523405055608256e-06
2.453,-5.844737574293304e-06
2.454,-6.237129353222678e-06
2.455,-3.976239505029032e-06
2.456,-4.051854755235189e-06
2.457,-6.468307375667337e-06
2.458,-7.0435007523335105e-06
2.459,-6.806670696508547e-06
2.46,-6.095132834491145e-06
2.461,-5.850361825209546e-06
2.462,-5.713807569873483e-06
2.463,-4.922871509591296e-06
2.464,-3.207441288198287e-06
2.465,-3.587317528908665e-06
2.466,-3.870769240098041e-06
2.467,-5.0543346594724755e-06
2.468,-5.9238545683863805e-06
2.469,-5.256598561602265e-06
2.47,-6.0242342954649096e-06
2.471,-5.096306466535156e-06
2.472,-5.743844442140381e-06
2.473,-7.342709647460502e-06
2.474,-7.376326467352107e-06
2.475,-7.037509862603535e-06
2.476,-6.729201704705115e-06
2.477,-6.664045607085415e-06
2.478,-5.762854484088753e-06
2.479,-5.152143275388266e-06
2.48,-3.5609989910617925e-06
2.481,-4.617631151122917e-06
2.482,-6.5459804830893e-06
2.483,-6.362758796337129e-06
2.484,-6.775248755001269e-06
2.485,-5.780113341611338e-06
2.486,-5.4633592371175744e-06
2.487,-8.101476987151153e-06
2.488,-1.1563656175729896e-05
2.489,-9.614858760220544e-06
2.49,-7.6194401763043215e-06
2.491,-1.0744945589416525e-05
2.492,-1.0865684387544456e-05
2.493,-1.0865702479831538e-05
2.494,-9.14082785061981e-06
2.495,-7.799554766232479e-06
2.496,-9.062647195178286e-06
2.497,-8.361470918724802e-06
2.498,-9.035193542690383e-06
2.499,-1.0127109060630066e-05
2.5,-7.380436791793996e-06
2.501,-6.434003801357216e-06
2.502,-7.018239008096858e-06
2.503,-7.551883772110411e-06
2.504,-8.139759735425822e-06
2.505,-8.071836024096149e-06
2.506,-6.623714061374142e-06
2.507,-6.658511203363377e-06
2.508,-1.002998759299175e-05
2.509,-1.058663750250143e-05
2.51,-1.2076369200029423e-05
2.511,-1.2151335757125706e-05
2.512,-1.1472459491115756e-05
2.513,-1.261321711302633e-05
2.514,-1.1962319025945259e-05
2.515,-1.0825018374824203e-05
2.516,-1.0322913657080386e-05
2.517,-1.0792250664733525e-05
2.518,-9.780871573156042e-06
2.519,-8.444087411960673e-06
2.52,-6.939852544851628e-06
2.521,-5.223686254888913e-06
2.522,-5.043810664512921e-06
2.523,-5.036953702211044e-06
2.524,-5.525202669731455e-06
2.525,-6.21419429761775e-06
2.526,-6.392800653732192e-06
2.527,-6.134329112952638e-06
2.528,-8.099112406824893e-06
2.529,-9.038235200060624e-06
2.53,-7.298039059053034e-06
2.531,-9.324977982516906e-06
2.532,-1.2370368324206777e-05
2.533,-1.2794592379340415e-05
2.534,-1.1870372299983875e-05
2.535,-1.0784824465416774e-05
2.536,-1.074012461908121e-05
2.537,-1.0152749127032268e-05
2.538,-1.0851394396755226e-05
2.539,-1.127380155297298e-05
2.54,-8.362814879484484e-06
2.541,-8.062070698633752e-06
2.542,-6.911742005342897e-06
2.543,-6.1447509591747985e-06
2.544,-8.683808048576067e-06
2.545,-8.439549075351826e-06
2.546,-5.809928087068007e-06
2.547,-5.580897440448991e-06
2.548,-6.728278000341345e-06
2.549,-8.420605753996125e-06
2.55,-9.922647279990414e-06
2.551,-8.79921460825354e-06
2.552,-1.0118885840702556e-05
2.553,-9.757253465772703e-06
2.554,-1.0199375618410995e-05
2.555,-1.0841190890251597e-05
2.556,-8.089765817589026e-06
2.557,-7.1623647633189515e-06
2.558,-6.884452343354593e-06
2.559,-7.986846719411407e-06
2.56,-6.902327198871144e-06
2.561,-6.162053247188839e-06
2.562,-6.69216903992054e-06
2.563,-6.210946582207044e-06
2.564,-6.126763562654533e-06
2.565,-6.537125423840263e-06
2.566,-7.028833525193173e-06
2.567,-6.979283704612097e-06
2.568,-7.958763920134648e-06
2.569,-8.533517630091052e-06
2.57,-8.669261390708467e-06
2.571,-9.034798618587272e-06
2.572,-9.405361177789503e-06
2.573,-9.465337347288577e-06
2.574,-9.210106008074862e-06
2.575,-9.846786322420385e-06
2.576,-8.793820718580254e-06
2.577,-8.179425711906694e-06
2.578,-7.139058270067733e-06
2.579,-6.412143736750119e-06
2.58,-7.43838495780575e-06
2.581,-6.354013898144071e-06
2.582,-6.688352611305314e-06
2.583,-7.361019462646043e-06
2.584,-6.580052204351521e-06
2.585,-6.641128375071481e-06
2.586,-4.827954731425673e-06
2.587,-4.013781931926503e-06
2.588,-7.0638900432154e-06
2.589,-1.0038795660320264e-05
2.59,-1.1097861938889175e-05
2.591,-1.130295547746852e-05
2.592,-1.072179236965921e-05
2.593,-1.0630649882736362e-05
2.594,-1.0316186537987525e-05
2.595,-1.2576205076400075e-05
2.596,-1.581930056907849e-05
2.597,-1.7363448863575397e-05
2.598,-1.3233697243521759e-05
2.599,-8.159208873453204e-06
2.6,-9.969976291461618e-06
2.601,-1.0393550524264529e-05
2.602,-9.7521282322229e-06
2.603,-1.1960300128878719e-05
2.604,-1.3723693776335742e-05
2.605,-8.938649877295376e-06
2.606,-4.592962918755503e-06
2.607,-6.9676054723105955e-06
2.608,-8.239251966533514e-06
2.609,-8.583332866752795e-06
2.61,-9.377292618211017e-06
2.611,-9.703700388697751e-06
2.612,-9.852874208759106e-06
2.613,-9.62472556761232e-06
2.614,-8.529608380633815e-06
2.615,-7.388055924353505e-06
2.616,-7.5294019358841535e-06
2.617,-8.089396350735537e-06
2.618,-7.307030635938886e-06
2.619,-7.120871812217758e-06
2.62,-6.865259469708663e-06
2.621,-6.366740619434142e-06
2.622,-6.441100754498772e-06
2.623,-6.8912973460626905e-06
2.624,-7.606519034936354e-06
2.625,-8.862487936966773e-06
2.626,-9.623003994068904e-06
2.627,-1.024261070348192e-05
2.628,-1.1470152540126533e-05
2.629,-1.2352906658831662e-05
2.63,-1.3140913691031603e-05
2.631,-1.4191110402997215e-05
2.632,-1.3070882958507738e-05
2.633,-1.3760712124781028e-05
2.634,-1.6955666002099447e-05
2.635,-1.5165603680894783e-05
2.636,-1.3714074265952149e-05
2.637,-1.4536018292213011e-05
2.638,-1.4474490869718061e-05
2.639,-1.3376717111553916e-05
2.64,-1.2389851743949457e-05
2.641,-1.1756840402177766e-05
2.642,-1.0012767583831763e-05
2.643,-9.08202686980939e-06
2.644,-9.176567711029774e-06
2.645,-9.295367783042983e-06
2.646,-8.825160906287202e-06
2.647,-9.142329393461449e-06
2.648,-8.21575816486551e-06
2.649,-8.010356841184032e-06
2.65,-1.0290894033613874e-05
2.651,-1.0225761088065664e-05
2.652,-9.79029305541804e-06
2.653,-1.0569321445035393e-05
2.654,-1.0158711635347274e-05
2.655,-9.265739868954257e-06
2.656,-1.0408280471945444e-05
2.657,-1.0812891936982744e-05
2.658,-9.911999248577909e-06
2.659,-9.240458708495448e-06
2.66,-7.131851922324373e-06
2.661,-7.314881732953074e-06
2.662,-7.3102323014150056e-06
2.663,-6.4282094034000385e-06
2.664,-6.9673999603510344e-06
2.665,-8.514489487858886e-06
2.666,-9.445262394948277e-06
2.667,-9.326694050296088e-06
2.668,-1.00199365677123e-05
2.669,-1.0183912748163396e-05
2.67,-1.0879173007040155e-05
2.671,-1.257164411839764e-05
2.672,-1.2635908632002625e-05
2.673,-1.1257698759515616e-05
2.674,-1.1835363889730517e-05
2.675,-1.1780169253317911e-05
2.676,-1.0315394995307162e-05
2.677,-9.974319164741773e-06
2.678,-8.897273852643661e-06
2.679,-7.528050755791147e-06
2.68,-6.4099925478643546e-06
2.681,-5.782134005015349e-06
2.682,-5.175749460150112e-06
2.683,-3.111621855716884e-06
2.684,-3.2982777167631414e-06
2.685,-6.431338899654958e-06
2.686,-5.5940352305556945e-06
2.687,-3.5588125725907695e-06
2.688,-5.5898690597141506e-06
2.689,-8.246367945338421e-06
2.69,-8.986016655667154e-06
2.691,-9.068673558390719e-06
2.692,-7.559648931634529e-06
2.693,-6.932403656320782e-06
2.694,-8.370414135349851e-06
2.695,-7.668058049954223e-06
2.696,-6.930473990261619e-06
2.697,-8.17244883718791e-06
2.698,-8.116480013857575e-06
2.699,-7.090236243498244e-06
2.7,-5.123692911139397e-06
2.701,-4.046241692493896e-06
2.702,-4.88406690690939e-06
2.703,-4.158044310661157e-06
2.704,-4.482355973186378e-06
2.705,-4.963934186469246e-06
2.706,-4.802756576022594e-06
2.707,-5.292923179289502e-06
2.708,-5.424363676573854e-06
2.709,-4.984957660975362e-06
2.71,-2.662809441883518e-06
2.711,-3.7484055166394015e-06
2.712,-4.136398734073081e-06
2.713,-2.726806507207552e-06
2.714,-3.5254765767540555e-06
2.715,-1.943755797688682e-06
2.716,-2.4973865989097205e-06
2.717,-2.6047427775733184e-06
2.718,-1.3845919655464834e-06
2.719,-6.536284169066043e-07
2.72,-1.224050648349101e-06
2.721,-2.901460445230009e-06
2.722,-3.6833323079458024e-06
2.723,-4.658248064736026e-06
2.724,-5.906015414426358e-06
2.725,-7.69869915197419e-06
2.726,-9.002498855585756e-06
2.727,-9.980316572559275e-06
2.728,-1.129478186449639e-05
2.729,-1.161144748587213e-05
2.73,-1.010184286976096e-05
2.731,-1.3546077635589848e-05
2.732,-1.8134723584247186e-05
2.733,-1.8069768046841244e-05
2.734,-1.706451808900994e-05
2.735,-1.6042435725644395e-05
2.736,-1.5434989240469385e-05
2.737,-1.5778704631152736e-05
2.738,-1.5111684252770153e-05
2.739,-1.3069918463191755e-05
2.74,-1.3083744293338857e-05
2.741,-1.297479957123944e-05
2.742,-1.2953781461264496e-05
2.743,-1.2719248261995754e-05
2.744,-1.275760876700669e-05
2.745,-1.4244333196805817e-05
2.746,-1.4446303946268303e-05
2.747,-1.4525114100338436e-05
2.748,-1.4441027400399837e-05
2.749,-1.4857244239733561e-05
2.75,-1.394408118692175e-05
2.751,-1.4282670381762792e-05
2.752,-1.48678204719086e-05
2.753,-1.2009749690776397e-05
2.754,-1.3734498178697147e-05
2.755,-1.3782942063311127e-05
2.756,-1.1008455672047724e-05
2.757,-1.0573389242846299e-05
2.758,-9.94463654413859e-06
2.759,-9.488650085883834e-06
2.76,-8.766313453342814e-06
2.761,-8.128095970262284e-06
2.762,-8.009892977642767e-06
2.763,-8.429897537428889e-06
2.764,-9.586761636644782e-06
2.765,-1.1459195030861872e-05
2.766,-1.230702777297346e-05
2.767,-1.3773639316801959e-05
2.768,-1.6489543964491903e-05
2.769,-1.8876829414153596e-05
2.77,-2.0654080374511313e-05
2.771,-2.2341388064421094e-05
2.772,-2.4465051149341016e-05
2.773,-2.696161317530231e-05
2.774,-2.678095152636031e-05
2.775,-2.7488226273016778e-05
2.776,-2.9364604854304462e-05
2.777,-2.900679003150716e-05
2.778,-2.8025483473970006e-05
2.779,-2.614300601289218e-05
2.78,-2.5790360080212628e-05
2.781,-2.520405464941748e-05
2.782,-2.462301557458232e-05
2.783,-2.3985875193012126e-05
2.784,-2.1428878068695067e-05
2.785,-1.8884561108153194e-05
2.786,-1.7781274275604058e-05
2.787,-1.7043512234402985e-05
2.788,-1.4992937138842444e-05
2.789,-1.3049897467018524e-05
2.79,-1.0835194606239915e-05
2.791,-8.971822969863714e-06
2.792,-7.786413065338066e-06
2.793,-7.310139509796566e-06
2.794,-6.178913991690546e-06
2.795,-5.432760594528832e-06
2.796,-5.714359834907684e-06
2.797,-4.1668392304210015e-06
2.798,-3.6309730109240187e-06
2.799,-4.742023229583245e-06
2.8,-5.52650206093013e-06
2.801,-5.9991557386355714e-06
2.802,-8.960462287760863e-06
2.803,-1.5094898688697507e-05
2.804,-1.9070171866040627e-05
2.805,-2.163752780614948e-05
2.806,-2.2533161848028268e-05
2.807,-2.448065947017511e-05
2.808,-3.119430958965494e-05
2.809,-3.7083059679901595e-05
2.81,-3.9454830590804426e-05
2.811,-4.152088337748201e-05
2.812,-4.429993271557145e-05
2.813,-4.692173087805662e-05
2.814,-4.722989942449515e-05
2.815,-4.548385709667922e-05
2.816,-4.6859774631445183e-05
2.817,-4.445057205928005e-05
2.818,-4.126505321753329e-05
2.819,-3.6926338059609744e-05
2.82,-2.9769799762730517e-05
2.821,-2.7240736591572513e-05
2.822,-2.3292006405345624e-05
2.823,-1.7181825657083912e-05
2.824,-1.187188826591653e-05
2.825,-7.22589848905697e-06
2.826,5.914569675330619e-07
2.827,8.515140968948717e-06
2.828,1.5180105950772133e-05
2.829,2.3521491137182163e-05
2.83,3.097485117455501e-05
2.831,3.677659175247392e-05
2.832,4.2264764968454785e-05
2.833,4.878033221432712e-05
2.834,5.186893971003485e-05
2.835,5.29831780062668e-05
2.836,5.378521973421864e-05
2.837,5.454965811273405e-05
2.838,5.4066310479820646e-05
2.839,5.074271353063202e-05
2.84,4.910602527986797e-05
2.841,4.570406583284843e-05
2.842,4.150527485468989e-05
2.843,3.9297435300367976e-05
2.844,3.088510496439127e-05
2.845,2.1985801977116156e-05
2.846,1.752509825491343e-05
2.847,1.0730876186851533e-05
2.848,4.6270888722109735e-06
2.849,1.427424573648933e-06
2.85,-1.8706946894345836e-06
2.851,-4.291356048317296e-06
2.852,-4.984256879397979e-06
2.853,-5.827354750188054e-06
2.854,-5.927858222422899e-06
2.855,-7.221471090218215e-06
2.856,-7.96993244890301e-06
2.857,-5.957023099458426e-06
2.858,-3.2833242579234245e-06
2.859,-1.6601074316465654e-06
2.86,-7.027966337292038e-07
2.861,7.755295259258527e-07
2.862,1.1701401214915072e-06
2.863,3.28975160851777e-06
2.864,3.5603993840235667e-06
2.865,1.227862399665046e-06
2.866,-3.414553604425691e-07
2.867,7.388449687919505e-07
2.868,3.9731684654014155e-06
2.869,2.18083736279905e-06
2.87,-8.077607478807924e-07
2.871,-3.955402272628046e-06
2.872,-6.922237322237536e-06
2.873,-7.2696063146303006e-06
2.874,-1.2163146525760858e-05
2.875,-1.717495497445684e-05
2.876,-1.968467586833706e-05
2.877,-2.3379491316951053e-05
2.878,-2.615310263360127e-05
2.879,-2.9203886157151085e-05
2.88,-3.223248329062117e-05
2.881,-3.483913265105097e-05
2.882,-3.7621068852305094e-05
2.883,-4.1970296560267405e-05
2.884,-4.577200224271806e-05
2.885,-4.6503794526465594e-05
2.886,-4.9135874666560896e-05
2.887,-5.253214033902339e-05
2.888,-5.5252128538031787e-05
2.889,-5.8253616332116e-05
2.89,-6.0695630030177355e-05
2.891,-6.244157042411298e-05
2.892,-6.416214817806368e-05
2.893,-6.523784020398009e-05
2.894,-6.556062311200953e-05
2.895,-6.583480890716919e-05
2.896,-6.747689409180895e-05
2.897,-6.961442770413409e-05
2.898,-6.888399730117266e-05
2.899,-6.712851535900121e-05
2.9,-6.259405393356477e-05
2.901,-6.042651644244619e-05
2.902,-6.116844825063733e-05
2.903,-6.0456271309132406e-05
2.904,-5.991818420660138e-05
2.905,-5.507290212670231e-05
2.906,-5.032932805231628e-05
2.907,-4.7387155372336184e-05
2.908,-4.5338311814040834e-05
2.909,-4.536907418613753e-05
2.91,-4.1362620603831794e-05
2.911,-3.910174773151009e-05
2.912,-3.8171468811540476e-05
2.913,-3.6161224823581926e-05
2.914,-3.416648420960158e-05
2.915,-3.178957176479732e-05
2.916,-3.183964792642238e-05
2.917,-2.9631847675303924e-05
2.918,-2.6885674780083054e-05
2.919,-2.712282351435021e-05
2.92,-2.596465864146399e-05
2.921,-2.2929619551706376e-05
2.922,-2.1630822471635978e-05
2.923,-1.997411487046866e-05
2.924,-2.035679056960133e-05
2.925,-2.1267107210316086e-05
2.926,-2.0984666373792705e-05
2.927,-2.3281628965036706e-05
2.928,-2.3824653309765743e-05
2.929,-2.377736938611676e-05
2.93,-2.420314725051469e-05
2.931,-2.46678867066251e-05
2.932,-2.6242551877330212e-05
2.933,-2.6505199084061005e-05
2.934,-2.7642297002539997e-05
2.935,-2.7549209523172182e-05
2.936,-2.742979703188742e-05
2.937,-2.599518242494312e-05
2.938,-2.4261814945688925e-05
2.939,-2.5649039038737322e-05
2.94,-2.557642918665127e-05
2.941,-2.4661179403972994e-05
2.942,-2.3815834529697955e-05
2.943,-2.3846619382635772e-05
2.944,-2.405256387335683e-05
2.945,-2.502554267344307e-05
2.946,-2.4151254626624686e-05
2.947,-2.251106885321082e-05
2.948,-2.478457118576845e-05
2.949,-2.4152565599048403e-05
2.95,-2.2300228832525025e-05
2.951,-2.1620088555768868e-05
2.952,-2.1314499608148583e-05
2.953,-2.1497329401292092e-05
2.954,-1.9394629704410205e-05
2.955,-1.734416201444335e-05
2.956,-1.7393749405909633e-05
2.957,-1.559853935412941e-05
2.958,-1.4917368977227969e-05
2.959,-1.4608516147668571e-05
2.96,-1.1125187926518152e-05
2.961,-9.411134841224092e-06
2.962,-7.996781541785284e-06
2.963,-8.996230453726243e-06
2.964,-1.0905427687623482e-05
2.965,-1.1401685323340086e-05
2.966,-1.2644639595182235e-05
2.967,-1.4078600712262468e-05
2.968,-1.553612828082683e-05
2.969,-1.734255770689836e-05
2.97,-1.9321117588117625e-05
2.971,-2.09982239303731e-05
2.972,-2.2108519202814886e-05
2.973,-2.3399244608611734e-05
2.974,-2.4733590823457502e-05
2.975,-2.399276079546814e-05
2.976,-2.467659005351047e-05
2.977,-2.5102695202528524e-05
2.978,-2.3804248521826258e-05
2.979,-2.3226594273060992e-05
2.98,-2.182301981336422e-05
2.981,-2.005006313092595e-05
2.982,-2.116277191841636e-05
2.983,-2.1210324985651026e-05
2.984,-1.873238542087614e-05
2.985,-2.015648061639653e-05
2.986,-2.1096604293196353e-05
2.987,-2.0653119551373996e-05
2.988,-2.0113920733706643e-05
2.989,-2.0156696902277024e-05
2.99,-2.0452041685805083e-05
2.991,-2.036708214998264e-05
2.992,-2.076925962086011e-05
2.993,-2.0629891354330127e-05
2.994,-1.9927173456003264e-05
2.995,-2.0348348974958674e-05
2.996,-2.1490854040958775e-05
2.997,-1.9762360319944334e-05
2.998,-1.8079743453939597e-05
2.999,-1.716711357424031e-05
3.0,-1.66531350610642e-05
3.001,-1.6367929689446654e-05
3.002,-1.563989380917988e-05
3.003,-1.5692762961079855e-05
3.004,-1.7243226392425972e-05
3.005,-1.769933269503553e-05
3.006,-1.295984263181743e-05
3.007,-1.4314584872100115e-05
3.008,-1.8845765032424712e-05
3.009,-1.8030078793452193e-05
3.01,-1.884139601717273e-05
3.011,-1.9453723209223144e-05
3.012,-2.0344122407633502e-05
3.013,-2.229526863772658e-05
3.014,-1.889736511205417e-05
3.015,-1.6449201712183433e-05
3.016,-1.985823133808821e-05
3.017,-2.023964150733773e-05
3.018,-1.821450475282884e-05
3.019,-1.7007190121025316e-05
3.02,-1.5742299296024738e-05
3.021,-1.6141446131337744e-05
3.022,-1.6520221755909335e-05
3.023,-1.658567616723814e-05
3.024,-1.6934602005231896e-05
3.025,-1.5452831090148528e-05
3.026,-1.7915656408983667e-05
3.027,-2.1689381001640348e-05
3.028,-2.013388152516193e-05
3.029,-1.9805969432256442e-05
3.03,-2.1363247229002463e-05
3.031,-2.1568099938390606e-05
3.032,-2.0991438795728827e-05
3.033,-2.0615828157949117e-05
3.034,-2.0437676843831112e-05
3.035,-1.9468257299804137e-05
3.036,-1.9733422597721112e-05
3.037,-1.8272012335563073e-05
3.038,-1.653306252255669e-05
3.039,-1.54720495582037e-05
3.04,-1.4146493264850799e-05
3.041,-1.2611309236615115e-05
3.042,-1.091432990601037e-05
3.043,-1.0992403502690501e-05
3.044,-1.106843104204991e-05
3.045,-1.0649617925495171e-05
3.046,-1.022710630091229e-05
3.047,-1.087702730400271e-05
3.048,-1.1462880631730213e-05
3.049,-1.1039025072532118e-05
3.05,-1.1454959452609576e-05
3.051,-1.1459998965292421e-05
3.052,-1.2307914263210451e-05
3.053,-1.3661103752671165e-05
3.054,-1.3493913110296524e-05
3.055,-1.2394796143240628e-05
3.056,-1.1367120228365117e-05
3.057,-9.728547384096304e-06
3.058,-1.0109056422069181e-05
3.059,-1.0847799803446521e-05
3.06,-8.989098562526049e-06
3.061,-7.477959476844704e-06
3.062,-6.955542833590389e-06
3.063,-6.5550124479075076e-06
3.064,-6.498161730168804e-06
3.065,-7.493134232148834e-06
3.066,-7.433451490568661e-06
3.067,-7.798435307347735e-06
3.068,-9.154977968554203e-06
3.069,-8.160485182135053e-06
3.07,-9.366705101113528e-06
3.071,-9.624073406318423e-06
3.072,-9.386157043235996e-06
3.073,-1.2113772337232535e-05
3.074,-1.2178387411911514e-05
3.075,-1.1864490678348273e-05
3.076,-1.417070956226313e-05
3.077,-1.1209586537095098e-05
3.078,-6.906050889415325e-06
3.079,-8.594751600666805e-06
3.08,-5.816526868702643e-06
3.081,-6.4143683527806666e-06
3.082,-7.829285155597139e-06
3.083,-2.4964793057079954e-06
3.084,-1.2422104736683917e-06
3.085,-3.281656258908395e-06
3.086,-4.017972717724776e-06
3.087,-2.6426379515496584e-06
3.088,-7.370316265543789e-07
3.089,-2.7507815347954137e-07
3.09,-6.266733683496277e-07
3.091,-1.3615346850221846e-06
3.092,-1.3530708540883806e-06
3.093,-1.8818641254480505e-06
3.094,-2.038395239091277e-06
3.095,1.7528333483173565e-07
3.096,1.445115434498491e-06
3.097,2.8459152719171446e-06
3.098,4.643480095752708e-06
3.099,5.69774756806484e-06
3.1,6.366695865894103e-06
3.101,6.110605635406845e-06
3.102,5.5962613075301685e-06
3.103,4.000669330349511e-06
3.104,3.7139128903043594e-06
3.105,5.040842838673029e-06
3.106,4.401415177109376e-06
3.107,2.5296158904980077e-06
3.108,-9.289485722480729e-07
3.109,-2.2205857798371406e-06
3.11,6.121443353195533e-07
3.111,-8.743104410236638e-07
3.112,-2.929191324573166e-06
3.113,-2.1116379665546275e-06
3.114,-1.4940105885029157e-06
3.115,-2.464008229884426e-06
3.116,-3.425381366700883e-06
3.117,-1.4971723546232537e-06
3.118,-1.0115595545211063e-06
3.119,-1.7105166805104156e-06
3.12,-1.541614513724117e-06
3.121,1.466238180447707e-07
3.122,3.109358722048886e-06
3.123,2.90960638384353e-06
3.124,2.821537802674456e-06
3.125,2.4325808511483556e-06
3.126,1.4441197628359993e-06
3.127,1.3707255559262846e-06
3.128,1.0379973676166998e-06
3.129,1.8792341158821432e-06
3.13,2.6312745265663756e-06
3.131,2.529929516609787e-06
3.132,2.505475484573323e-06
3.133,1.8786755040281274e-06
3.134,1.957747512009972e-06
3.135,2.5366086477081226e-06
3.136,2.994601395896728e-06
3.137,4.397761952182419e-06
3.138,4.701538304238912e-06
3.139,4.854719833487334e-06
3.14,5.504216120668542e-06
3.141,5.800232435881262e-06
3.142,5.901342254223407e-06
3.143,6.1789580898842e-06
3.144,5.920751376560814e-06
3.145,4.532665727142974e-06
3.146,4.639297049462082e-06
3.147,2.1825665377276205e-06
3.148,-5.812259924580572e-07
3.149,-1.085726061543125e-06
3.15,-2.3598499994523127e-06
3.151,-4.533637187876405e-06
3.152,-7.244099518343195e-06
3.153,-8.640533404353144e-06
3.154,-7.588805063985141e-06
3.155,-8.974211604311084e-06
3.156,-1.2202650172993224e-05
3.157,-8.199982915053886e-06
3.158,-4.809652002138935e-06
3.159,-5.888760810855004e-06
3.16,-3.1029790597565374e-06
3.161,-1.8207379136914126e-06
3.162,-5.007245467426285e-06
3.163,-3.618867551148121e-06
3.164,-2.298382153657999e-06
3.165,-3.471531526926065e-06
3.166,-1.8451723589318193e-06
3.167,-9.071731813761267e-07
3.168,-2.2280439239008173e-06
3.169,-4.86412094970076e-06
3.17,-6.961987405914606e-06
3.171,-6.563696890110811e-06
3.172,-6.312298752880036e-06
3.173,-9.257142189268927e-06
3.174,-9.258465260945156e-06
3.175,-8.790850916294068e-06
3.176,-1.194524718661522e-05
3.177,-1.1229391526273752e-05
3.178,-8.866635608475753e-06
3.179,-8.393321435894505e-06
3.18,-6.9549973086013564e-06
3.181,-6.501869701109888e-06
3.182,-5.1839541841658606e-06
3.183,-4.946408986385529e-06
3.184,-5.025507072966303e-06
3.185,-4.145629949411191e-06
3.186,-5.817556443020587e-06
3.187,-6.138183801009969e-06
3.188,-5.191670421395144e-06
3.189,-5.55184438665443e-06
3.19,-7.885594323816769e-06
3.191,-8.656861769304959e-06
3.192,-8.730796875134468e-06
3.193,-9.27762759182905e-06
3.194,-9.275827413075682e-06
3.195,-1.0714244653048577e-05
3.196,-1.159296898371397e-05
3.197,-1.0822846979245866e-05
3.198,-1.1723703715369247e-05
3.199,-1.2021467100917607e-05
3.2,-1.0444511162122672e-05
3.201,-1.0519621536116818e-05
3.202,-1.1168031793524243e-05
3.203,-1.1801977931042619e-05
3.204,-1.252217020209158e-05
3.205,-1.261649090564978e-05
3.206,-1.2860102692988064e-05
3.207,-1.4717006721610537e-05
3.208,-1.534293818966433e-05
3.209,-1.5789343836393277e-05
3.21,-1.6908066575750973e-05
3.211,-1.7256279008458666e-05
3.212,-1.7501169116615925e-05
3.213,-1.7423892553284793e-05
3.214,-1.6822366252110656e-05
3.215,-1.6312582326486113e-05
3.216,-1.6528259680816775e-05
3.217,-1.491881016709957e-05
3.218,-1.4145760990063144e-05
3.219,-1.3377929162204247e-05
3.22,-1.0685771771038938e-05
3.221,-8.935424672922079e-06
3.222,-8.182982695790365e-06
3.223,-7.96956188849946e-06
3.224,-8.517619314532183e-06
3.225,-8.828894013758605e-06
3.226,-8.484184344036222e-06
3.227,-9.845005929450937e-06
3.228,-1.0656997182776081e-05
3.229,-1.2354772896685523e-05
3.23,-1.3667786875059455e-05
3.231,-1.3126665687221446e-05
3.232,-1.3969427229835408e-05
3.233,-1.5047004914854976e-05
3.234,-1.6227560672896584e-05
3.235,-1.619918193501258e-05
3.236,-1.6470708872995063e-05
3.237,-1.5370614143912158e-05
3.238,-1.3044041433948861e-05
3.239,-1.3448283608909146e-05
3.24,-1.3047129480328219e-05
3.241,-1.2604615788878598e-05
3.242,-1.327877756164976e-05
3.243,-1.2815989979801102e-05
3.244,-1.2246438203376545e-05
3.245,-1.1281143612042616e-05
3.246,-1.1910825963928679e-05
3.247,-1.3606705347285187e-05
3.248,-1.3123162388642077e-05
3.249,-1.4401997830872203e-05
3.25,-1.4377880377924268e-05
3.251,-1.398445926538782e-05
3.252,-1.8860556153294224e-05
3.253,-2.005584554665511e-05
3.254,-1.8735484454917808e-05
3.255,-1.8683255314939303e-05
3.256,-1.9502931216369485e-05
3.257,-2.0217745043046524e-05
3.258,-1.6168027482829687e-05
3.259,-1.2707255145752333e-05
3.26,-1.3396902167802256e-05
3.261,-1.3300601948876359e-05
3.262,-1.1278189177499152e-05
3.263,-1.0880200005293498e-05
3.264,-1.1543359581638499e-05
3.265,-1.178748607997963e-05
3.266,-1.071409879432403e-05
3.267,-1.1506848845426938e-05
3.268,-1.2633711159341083e-05
3.269,-1.0350703340467118e-05
3.27,-1.0306747822987767e-05
3.271,-1.2749182843315144e-05
3.272,-1.4529366126186e-05
3.273,-1.5807808657099653e-05
3.274,-1.4958325029865952e-05
3.275,-1.3770786640124486e-05
3.276,-1.3552204493012579e-05
3.277,-1.2726035658709412e-05
3.278,-1.3029784877242492e-05
3.279,-1.361114293240925e-05
3.28,-1.2023049377411758e-05
3.281,-1.0718174595740748e-05
3.282,-1.0843374432667068e-05
3.283,-1.0634674008265814e-05
3.284,-1.1613285517132242e-05
3.285,-1.2083062976954456e-05
3.286,-1.0429655090918587e-05
3.287,-1.072144966225756e-05
3.288,-1.2612225923663997e-05
3.289,-1.394526221845659e-05
3.29,-1.4858502383143335e-05
3.291,-1.5590279163630812e-05
3.292,-1.648503741866608e-05
3.293,-1.6298499207455486e-05
3.294,-1.6301767180919136e-05
3.295,-1.7383966624214783e-05
3.296,-1.6153169759967784e-05
3.297,-1.4635514362645178e-05
3.298,-1.4472605717736364e-05
3.299,-1.4917459010565466e-05
3.3,-1.4529381765082555e-05
3.301,-1.2968298919920981e-05
3.302,-1.1589076394688336e-05
3.303,-9.436397353239829e-06
3.304,-9.540689038645812e-06
3.305,-9.515492676009803e-06
3.306,-9.656525007159078e-06
3.307,-1.2542511841661692e-05
3.308,-1.2937698282478145e-05
3.309,-1.159577445122031e-05
3.31,-1.1164816045453711e-05
3.311,-1.3692739733116298e-05
3.312,-1.5832724055021963e-05
3.313,-1.5148052020588991e-05
3.314,-1.341589134261264e-05
3.315,-1.342963626333646e-05
3.316,-1.4999580370612037e-05
3.317,-1.3451858151036831e-05
3.318,-1.1525767449243443e-05
3.319,-9.169748055983537e-06
3.32,-9.536427010201107e-06
3.321,-1.0977235298196751e-05
3.322,-1.0137143997491788e-05
3.323,-1.1850056130836217e-05
3.324,-8.73532465842855e-06
3.325,-6.195753642402506e-06
3.326,-8.81728993677744e-06
3.327,-1.0370441717172648e-05
3.328,-1.2113284876399945e-05
3.329,-1.0095756363328873e-05
3.33,-9.664801249474117e-06
3.331,-1.2169851083346825e-05
3.332,-1.1568074098590602e-05
3.333,-1.3928857060150976e-05
3.334,-1.4337052347826727e-05
3.335,-1.1594645213461968e-05
3.336,-1.2820653152535606e-05
3.337,-1.1949246527373545e-05
3.338,-1.112625939250021e-05
3.339,-1.1204423964412192e-05
3.34,-1.133779482633565e-05
3.341,-1.387591630439261e-05
3.342,-1.2558319449472724e-05
3.343,-9.109909995918558e-06
3.344,-8.6377275589178e-06
3.345,-8.429426751256613e-06
3.346,-9.953665260625689e-06
3.347,-1.2262398284286145e-05
3.348,-1.3094891196730013e-05
3.349,-1.3683091354932409e-05
3.35,-1.3957862437582128e-05
3.351,-1.4955494396316844e-05
3.352,-1.672386814513138e-05
3.353,-1.62276802325424e-05
3.354,-1.5252216772597238e-05
3.355,-1.4705300023606727e-05
3.356,-1.2917202435328568e-05
3.357,-1.2038515274214963e-05
3.358,-1.2136153518052344e-05
3.359,-1.0587856728121958e-05
3.36,-7.475689750359586e-06
3.361,-6.47914330357274e-06
3.362,-7.168473346990728e-06
3.363,-3.7988957060972932e-06
3.364,-1.2061708504356743e-06
3.365,-3.1039807950168324e-06
3.366,-3.5833286774871403e-06
3.367,-1.613998243741096e-06
3.368,-4.3479139948555796e-06
3.369,-7.024062162421794e-06
3.37,-6.174485496114584e-06
3.371,-9.030765318321193e-06
3.372,-9.630362026729652e-06
3.373,-8.522204217329986e-06
3.374,-9.27099488414475e-06
3.375,-1.0259832964036036e-05
3.376,-1.0590917039753545e-05
3.377,-1.1484288718124761e-05
3.378,-1.167476733382802e-05
3.379,-9.507406142894737e-06
3.38,-1.0431945560202044e-05
3.381,-9.996837018942242e-06
3.382,-7.943452101066938e-06
3.383,-8.301071715179895e-06
3.384,-9.983171277365142e-06
3.385,-1.1685387865353976e-05
3.386,-1.1585386976603842e-05
3.387,-1.1244656403560339e-05
3.388,-1.1312061563359295e-05
3.389,-1.2628819408480428e-05
3.39,-1.443440426268572e-05
3.391,-1.4672802763061221e-05
3.392,-1.429849606980046e-05
3.393,-1.418156955823137e-05
3.394,-1.3411431277682462e-05
3.395,-1.3198752713706467e-05
3.396,-1.2275415976165914e-05
3.397,-9.492443854434894e-06
3.398,-7.816084503281628e-06
3.399,-7.922401824473788e-06
3.4,-6.0908684301114895e-06
3.401,-3.797556223937343e-06
3.402,-4.408560578288688e-06
3.403,-3.374273856374107e-06
3.404,-2.125044627301051e-06
3.405,-2.4686280903283015e-06
3.406,-2.6896636936574163e-06
3.407,-4.551224159707338e-06
3.408,-6.298284685342509e-06
3.409,-7.462780840123676e-06
3.41,-8.969775960678633e-06
3.411,-8.444157726430843e-06
3.412,-8.717238599294109e-06
3.413,-1.0232649914093205e-05
3.414,-9.050992747087239e-06
3.415,-8.052832741429287e-06
3.416,-9.039788415424849e-06
3.417,-1.0033647059660552e-05
3.418,-1.037363102820362e-05
3.419,-8.412111670540331e-06
3.42,-7.409211502403352e-06
3.421,-7.926833832372854e-06
3.422,-9.122703816067316e-06
3.423,-9.444992051111254e-06
3.424,-9.128023318254447e-06
3.425,-8.28945636080713e-06
3.426,-4.729167822448518e-06
3.427,-4.42990024222843e-06
3.428,-5.659557831036433e-06
3.429,-6.77487225099562e-06
3.43,-7.426029781520316e-06
3.431,-5.561763855482639e-06
3.432,-7.234381277412273e-06
3.433,-9.904209497674998e-06
3.434,-8.44302355814266e-06
3.435,-8.236126920350227e-06
3.436,-8.682908055503941e-06
3.437,-7.4958589429269505e-06
3.438,-7.898205403594943e-06
3.439,-8.220445530710971e-06
3.44,-7.496206265127445e-06
3.441,-7.157897683411507e-06
3.442,-7.632662683710509e-06
3.443,-6.639084639839521e-06
3.444,-6.1850309151004756e-06
3.445,-5.466884682466078e-06
3.446,-5.77026432723762e-06
3.447,-8.572164773824747e-06
3.448,-7.744295641777832e-06
3.449,-7.057254000606605e-06
3.45,-6.8850692821061244e-06
3.451,-5.609605559850581e-06
3.452,-5.624308025553576e-06
3.453,-5.636836697997505e-06
3.454,-5.4702362083963816e-06
3.455,-3.3624357865021912e-06
3.456,-1.9640440255422066e-06
3.457,-1.0345815677391444e-06
3.458,2.4625366080006386e-06
3.459,3.965816486406508e-06
3.46,2.8217462618815152e-06
3.461,1.8905062087089012e-06
3.462,9.507430232414572e-07
3.463,-6.971035942234729e-07
3.464,-2.8293096326682984e-06
3.465,-5.899432026721503e-06
3.466,-5.540959599314177e-06
3.467,-5.571879078290983e-06
3.468,-9.200797656546462e-06
3.469,-1.2034105979976675e-05
3.47,-1.4283554013484752e-05
3.471,-1.517355849775423e-05
3.472,-1.664757076919109e-05
3.473,-1.86729075790614e-05
3.474,-1.914357906777507e-05
3.475,-1.6080825462605142e-05
3.476,-1.4631281079360248e-05
3.477,-1.506290153371187e-05
3.478,-1.4458997258559687e-05
3.479,-1.4010893828854427e-05
3.48,-1.2309870250269476e-05
3.481,-1.1539097635801002e-05
3.482,-1.116630549553348e-05
3.483,-1.083784037885008e-05
3.484,-1.1574657374812798e-05
3.485,-1.107061038592035e-05
3.486,-1.1793198313346963e-05
3.487,-1.3886700747006812e-05
3.488,-1.4377419265101738e-05
3.489,-1.568054926495537e-05
3.49,-1.7008060122537093e-05
3.491,-1.7676871985307336e-05
3.492,-1.881659375578396e-05
3.493,-1.957613072156438e-05
3.494,-1.9228577359659203e-05
3.495,-1.777397069782043e-05
3.496,-1.623967696020207e-05
3.497,-1.4978400346954669e-05
3.498,-1.3364017368359071e-05
3.499,-1.1785633175961742e-05
3.5,-1.0240410042841097e-05
3.501,-8.625818690882426e-06
3.502,-7.232001892583107e-06
3.503,-6.834914013499683e-06
3.504,-7.290813406286123e-06
3.505,-6.3325460852287575e-06
3.506,-7.067882980536278e-06
3.507,-8.279976771452914e-06
3.508,-8.429806970411646e-06
3.509,-1.0460302511397662e-05
3.51,-1.2401686472334356e-05
3.511,-1.4377490956050999e-05
3.512,-1.6410649880362067e-05
3.513,-1.832909613894208e-05
3.514,-2.0070364099511353e-05
3.515,-2.148482005839722e-05
3.516,-2.3037298895458453e-05
3.517,-2.4007098429483276e-05
3.518,-2.5186456018238076e-05
3.519,-2.5877787230881574e-05
3.52,-2.4690088440585915e-05
3.521,-2.433498201579184e-05
3.522,-2.542290724104124e-05
3.523,-2.595993039926275e-05
3.524,-2.644556736787199e-05
3.525,-2.5471890509199997e-05
3.526,-2.492404163773805e-05
3.527,-2.488211031332007e-05
3.528,-2.4324178726078438e-05
3.529,-2.333019754380999e-05
3.53,-2.2186255597183258e-05
3.531,-2.0588750821846607e-05
3.532,-1.824796635393808e-05
3.533,-1.5590604649713553e-05
3.534,-1.4960929154166417e-05
3.535,-1.4620297677004696e-05
3.536,-1.0745030651572524e-05
3.537,-8.622724743689853e-06
3.538,-5.947280853173109e-06
3.539,-3.513049262667449e-06
3.54,-4.008589865608526e-06
3.541,-4.2105922403390205e-06
3.542,-2.678493882946487e-06
3.543,-2.502755853362834e-07
3.544,-2.9398064961606005e-06
3.545,-6.135968336967022e-06
3.546,-8.003622774764348e-06
3.547,-1.2286314560723053e-05
3.548,-1.5410442832955567e-05
3.549,-1.8890499938016516e-05
3.55,-2.413488451127365e-05
3.551,-2.7951752557036653e-05
3.552,-3.275438105988949e-05
3.553,-3.6365581967176484e-05
3.554,-3.682081360446297e-05
3.555,-4.066978043637344e-05
3.556,-4.4876475727539415e-05
3.557,-4.5717788194602017e-05
3.558,-4.5980945918165306e-05
3.559,-4.716019274822447e-05
3.56,-4.8753171350207026e-05
3.561,-4.665751440693831e-05
3.562,-4.2868118060066264e-05
3.563,-4.0675491803116914e-05
3.564,-3.90654545148743e-05
3.565,-3.512028962534892e-05
3.566,-3.092129949453589e-05
3.567,-2.7152527818049965e-05
3.568,-2.1505267239277482e-05
3.569,-1.608285364414098e-05
3.57,-1.0405181793305749e-05
3.571,-5.312367265331665e-06
3.572,1.2329701875363066e-06
3.573,1.1145220100482884e-05
3.574,2.1417355569117588e-05
3.575,2.9124644411503675e-05
3.576,3.613036919597985e-05
3.577,4.2993227288362644e-05
3.578,4.877590407617023e-05
3.579,5.355417510098092e-05
3.58,5.612581016510485e-05
3.581,5.7418533801710806e-05
3.582,5.699634511924403e-05
3.583,5.6463612958477796e-05
3.584,5.3666530451368334e-05
3.585,4.989172207238374e-05
3.586,4.566202777309594e-05
3.587,4.232972215648752e-05
3.588,3.656764088903454e-05
3.589,2.805886228695876e-05
3.59,2.0585713300202104e-05
3.591,1.2318924937714108e-05
3.592,5.907747482945705e-06
3.593,3.7175203264958326e-07
3.594,-3.805100345488575e-06
3.595,-6.577733925900945e-06
3.596,-5.640414136630674e-06
3.597,-3.6244541329127774e-06
3.598,-1.8934659158407087e-06
3.599,-1.236642773576549e-06
3.6,-3.3607055279235405e-06
3.601,-3.1812313026570527e-06
3.602,5.858962181655207e-07
3.603,2.3322220973805235e-06
3.604,1.963054502027222e-06
3.605,2.9019670351723147e-06
3.606,1.793226656210821e-06
3.607,1.1021081800931269e-06
3.608,3.613254857829554e-06
3.609,1.8274195342009145e-06
3.61,-2.2429436262283455e-06
3.611,-2.778682668965163e-06
3.612,-3.8589661584954635e-06
3.613,-4.865768159699346e-06
3.614,-5.287357852892949e-06
3.615,-6.620461360955846e-06
3.616,-6.970922299645141e-06
3.617,-7.852858963980529e-06
3.618,-9.886482189985604e-06
3.619,-1.169488191973574e-05
3.62,-1.4000198039407286e-05
3.621,-1.8519651795812724e-05
3.622,-2.456192260476152e-05
3.623,-2.3624311341934296e-05
3.624,-2.5891040604772725e-05
3.625,-3.47329150536686e-05
3.626,-3.8808414558829266e-05
3.627,-4.1666135509577454e-05
3.628,-4.41483478849842e-05
3.629,-4.709531302372404e-05
3.63,-5.0249922261185925e-05
3.631,-5.206217853167122e-05
3.632,-5.4893055601227464e-05
3.633,-6.08173314839229e-05
3.634,-6.4225097375018e-05
3.635,-6.262178024220587e-05
3.636,-6.18266718620296e-05
3.637,-6.207011351549938e-05
3.638,-6.338962748246657e-05
3.639,-6.452539905739426e-05
3.64,-6.56155841712389e-05
3.641,-6.789194015166674e-05
3.642,-6.767624797834915e-05
3.643,-6.697791616488794e-05
3.644,-6.669303674128821e-05
3.645,-6.760501463295712e-05
3.646,-6.638672805463782e-05
3.647,-6.220401598431674e-05
3.648,-6.262014590590905e-05
3.649,-6.300080561736782e-05
3.65,-6.091909854567173e-05
3.651,-5.7560009801690226e-05
3.652,-5.382385206317971e-05
3.653,-5.0928292784016443e-05
3.654,-4.740869856576865e-05
3.655,-4.45166958725997e-05
3.656,-4.0917023662935836e-05
3.657,-3.678292552176782e-05
3.658,-3.669047933054206e-05
3.659,-3.341237619661281e-05
3.66,-2.6811725561427347e-05
3.661,-2.553647307716951e-05
3.662,-2.4414970361431395e-05
3.663,-2.27531351020699e-05
3.664,-2.3933495449609978e-05
3.665,-2.5116237855617897e-05
3.666,-2.5242189227553382e-05
3.667,-2.523748066815313e-05
3.668,-2.6019479028606786e-05
3.669,-2.720344983728652e-05
3.67,-2.7709343046090658e-05
3.671,-2.876807879734495e-05
3.672,-2.8926755800656114e-05
3.673,-2.9752305877657827e-05
3.674,-3.053326531593851e-05
3.675,-3.0779512876881885e-05
3.676,-3.012001844592392e-05
3.677,-2.8898836691662802e-05
3.678,-2.9869748293594946e-05
3.679,-2.9590080967958527e-05
3.68,-2.861432100369249e-05
3.681,-2.5988145570676985e-05
3.682,-2.4443464621280485e-05
3.683,-2.569496261796416e-05
3.684,-2.7138483974922e-05
3.685,-2.7851426041017496e-05
3.686,-2.679510701480715e-05
3.687,-2.751888233666531e-05
3.688,-2.716561060640143e-05
3.689,-2.6077935660807396e-05
3.69,-2.590476819981288e-05
3.691,-2.3807326438662764e-05
3.692,-2.4964133138188483e-05
3.693,-2.6774462519847666e-05
3.694,-2.5459875877745527e-05
3.695,-2.3963665283193394e-05
3.696,-2.1448223359411806e-05
3.697,-2.029055466717357e-05
3.698,-1.9576321865352727e-05
3.699,-1.6692960493047336e-05
3.7,-1.6122486519158127e-05
3.701,-1.553465212619244e-05
3.702,-1.4081074611003439e-05
3.703,-1.2690873808395845e-05
3.704,-1.1968213721048938e-05
3.705,-1.499196750481475e-05
3.706,-1.7217528524173026e-05
3.707,-1.6080592607814015e-05
3.708,-1.6702556672451506e-05
3.709,-2.1397033532624867e-05
3.71,-2.3376885549920073e-05
3.711,-2.296113966528795e-05
3.712,-2.3881166635449746e-05
3.713,-2.598558546559785e-05
3.714,-2.7843482053928148e-05
3.715,-2.8745696162793306e-05
3.716,-2.8804116765705663e-05
3.717,-2.5349114483406256e-05
3.718,-2.542541301713351e-05
3.719,-2.6786842691925017e-05
3.72,-2.509051518962422e-05
3.721,-2.5991000572561732e-05
3.722,-2.7135072421504314e-05
3.723,-2.4957516622002693e-05
3.724,-2.2778381688533167e-05
3.725,-2.260189574782049e-05
3.726,-2.4417102978886245e-05
3.727,-2.510009777003899e-05
3.728,-2.5317575493431757e-05
3.729,-2.713129033525863e-05
3.73,-2.5902925555674885e-05
3.731,-2.379884795180406e-05
3.732,-2.479423901437673e-05
3.733,-2.5876167695498842e-05
3.734,-2.5945286061712536e-05
3.735,-2.4915977244550664e-05
3.736,-2.361494973867095e-05
3.737,-2.387843636338278e-05
3.738,-2.2848303330836308e-05
3.739,-1.9567489874241386e-05
3.74,-1.9875270089119772e-05
3.741,-2.1002848790672665e-05
3.742,-2.0669770227311948e-05
3.743,-2.0781535729982016e-05
3.744,-2.142870218025556e-05
3.745,-2.088758011601925e-05
3.746,-2.112248387960194e-05
3.747,-2.238932336229275e-05
3.748,-2.224018422446934e-05
3.749,-2.3628435618075745e-05
3.75,-2.3313842612965044e-05
3.751,-2.226715136068583e-05
3.752,-2.3173659892989847e-05
3.753,-2.2635382307222486e-05
3.754,-2.2071549860854076e-05
3.755,-2.1117355952383357e-05
3.756,-2.0321027017863974e-05
3.757,-2.0439470661139272e-05
3.758,-2.0732898946059448e-05
3.759,-2.0158933919534e-05
3.76,-1.9366762914921728e-05
3.761,-1.889191654248749e-05
3.762,-1.585219143485366e-05
3.763,-1.6145137233896314e-05
3.764,-2.0147382551922545e-05
3.765,-2.0815901487939687e-05
3.766,-2.21911373755321e-05
3.767,-2.3401721682910723e-05
3.768,-2.3670370786208122e-05
3.769,-2.5620426904764982e-05
3.77,-2.6482443339838238e-05
3.771,-2.8100204981932655e-05
3.772,-2.90356240312382e-05
3.773,-2.8272053558999378e-05
3.774,-2.751570825352665e-05
3.775,-2.649505847760968e-05
3.776,-2.5058253702193723e-05
3.777,-2.326881625255635e-05
3.778,-2.1500008344029187e-05
3.779,-2.1328399014345707e-05
3.78,-1.9827230897678397e-05
3.781,-1.8660202805730286e-05
3.782,-1.737624129886466e-05
3.783,-1.4405737046796117e-05
3.784,-1.415857927444025e-05
3.785,-1.2924147802054504e-05
3.786,-1.567323396896554e-05
3.787,-1.8961677298129714e-05
3.788,-1.7535341935182975e-05
3.789,-1.5835931367859043e-05
3.79,-1.5507063729725973e-05
3.791,-1.5900010322306158e-05
3.792,-1.637853853894855e-05
3.793,-1.582239315419299e-05
3.794,-1.5929087688274403e-05
3.795,-1.5813846637689032e-05
3.796,-1.1007723122841835e-05
3.797,-1.1754096892505476e-05
3.798,-1.2803916965645615e-05
3.799,-1.1010175910418786e-05
3.8,-1.072217690868329e-05
3.801,-8.980173173116523e-06
3.802,-8.210920299494773e-06
3.803,-7.924589718436285e-06
3.804,-7.91335477601763e-06
3.805,-8.851793675989839e-06
3.806,-1.1099072115876975e-05
3.807,-1.2802690877719345e-05
3.808,-1.2503427436141783e-05
3.809,-1.2840981253849804e-05
3.81,-1.3759761650458659e-05
3.811,-1.2514241967960982e-05
3.812,-1.317334574829685e-05
3.813,-1.4023425685934855e-05
3.814,-1.3269534889363866e-05
3.815,-1.2634858830116835e-05
3.816,-1.0858358647105903e-05
3.817,-8.990854230821963e-06
3.818,-6.689931177466613e-06
3.819,-6.614173862412843e-06
3.82,-7.3172957818915615e-06
3.821,-5.842751018924473e-06
3.822,-6.519365781168383e-06
3.823,-7.958430669906825e-06
3.824,-6.852552159511469e-06
3.825,-5.676389516540541e-06
3.826,-4.789217875002261e-06
3.827,-5.839077563046579e-06
3.828,-7.468111771917519e-06
3.829,-6.518574832318749e-06
3.83,-5.338923588695103e-06
3.831,-6.6893916533225425e-06
3.832,-7.646492142529772e-06
3.833,-3.1059946043655908e-06
3.834,-1.8840666958486759e-06
3.835,-3.916446832742489e-06
3.836,-2.755703558104575e-06
3.837,-1.6668224151189607e-06
3.838,-2.1523720485353004e-08
3.839,2.808160983409599e-06
3.84,4.456451983829102e-06
3.841,4.269905711717664e-06
3.842,4.412444912802405e-06
3.843,4.568857347133862e-06
3.844,3.746429584192325e-06
3.845,2.9745583415166505e-06
3.846,5.023727515285639e-07
3.847,-1.0541144338176018e-07
3.848,-1.2740185149436617e-06
3.849,-5.225004005984226e-06
3.85,-3.182915143293297e-06
3.851,-7.816027827776795e-07
3.852,-4.869604217827299e-06
3.853,-7.214108469557345e-06
3.854,-6.0031541824248095e-06
3.855,-6.245881403140265e-06
3.856,-5.170845634900616e-06
3.857,-2.9225874515445284e-06
3.858,-5.256815728369625e-06
3.859,-5.534691324369627e-06
3.86,-2.7167785281386678e-06
3.861,-2.0572562083560606e-06
3.862,1.1010526768574989e-06
3.863,1.8303621574833396e-06
3.864,8.199768734551763e-07
3.865,1.1765453058547177e-06
3.866,3.2252047371792297e-07
3.867,-6.985463683226168e-09
3.868,-9.686074930768453e-07
3.869,-1.4159263659527176e-06
3.87,-1.4049151178863685e-06
3.871,-2.299067991789368e-06
3.872,-2.2736819174116837e-06
3.873,-2.418849350314807e-06
3.874,-1.3408539739505198e-06
3.875,-6.618242142296561e-07
3.876,-5.176773679948711e-07
3.877,4.4543835337426813e-07
3.878,5.758428392664994e-07
3.879,2.2168554354606922e-07
3.88,1.1364211292445633e-06
3.881,2.783836339416391e-06
3.882,-1.578929832986381e-07
3.883,-4.935413798062394e-07
3.884,4.190141323764323e-06
3.885,4.0235982662191666e-06
3.886,-5.481137871845308e-07
3.887,-3.7694161297465086e-06
3.888,-3.979423133186412e-06
3.889,-7.5177754093241446e-06
3.89,-7.130519048614922e-06
3.891,-2.775448209010467e-06
3.892,-5.2263752627124e-06
3.893,-7.675892953020144e-06
3.894,-5.636337015040197e-06
3.895,-4.038831570858715e-06
3.896,-3.5304864219325482e-06
3.897,-3.569996878402525e-06
3.898,-3.122055170468029e-06
3.899,-2.5511021461430753e-06
3.9,-2.4150169580931356e-06
3.901,-2.259353764305038e-06
3.902,-6.126866993650032e-07
3.903,-1.0835218601915366e-06
3.904,-5.559087490553722e-06
3.905,-6.1061350647414715e-06
3.906,-6.673691744385119e-06
3.907,-7.997517289709712e-06
3.908,-8.105854111701578e-06
3.909,-1.1525933737443612e-05
3.91,-1.4990628767510706e-05
3.911,-1.2744623730436383e-05
3.912,-1.034952272187626e-05
3.913,-1.1787412160965872e-05
3.914,-1.1762543776119871e-05
3.915,-1.1800981914596072e-05
3.916,-1.1148253184890517e-05
3.917,-9.665226557112683e-06
3.918,-7.322619990735377e-06
3.919,-5.5946592034839916e-06
3.92,-5.052492836575813e-06
3.921,-4.457988450442898e-06
3.922,-4.858493623189899e-06
3.923,-4.283049909193704e-06
3.924,-4.1404040146404125e-06
3.925,-4.9189842857537995e-06
3.926,-7.488818701240582e-06
3.927,-6.50518174385082e-06
3.928,-7.0135902142437315e-06
3.929,-9.755638549969644e-06
3.93,-8.575085126355053e-06
3.931,-9.02358001227755e-06
3.932,-9.765463714336199e-06
3.933,-8.681161668467439e-06
3.934,-8.668841226826897e-06
3.935,-7.444172652442334e-06
3.936,-9.638225967897893e-06
3.937,-1.2893722662766412e-05
3.938,-1.0660026799758435e-05
3.939,-1.0987387627121407e-05
3.94,-1.082102276692872e-05
3.941,-1.1095649717241743e-05
3.942,-1.163103180214451e-05
3.943,-1.1729006761462955e-05
3.944,-1.2272321363392967e-05
3.945,-1.1725417840713571e-05
3.946,-1.3937124937536139e-05
3.947,-1.4245016811484091e-05
3.948,-1.2881035583074025e-05
3.949,-1.617784447059686e-05
3.95,-1.757530098073507e-05
3.951,-1.6726421345767333e-05
3.952,-1.8702250354945506e-05
3.953,-1.709515099919878e-05
3.954,-1.4920176413847597e-05
3.955,-1.5014368259076308e-05
3.956,-1.3734023408916494e-05
3.957,-1.2550165502964423e-05
3.958,-1.1542630676605442e-05
3.959,-9.793310837391663e-06
3.96,-8.779180133229967e-06
3.961,-7.765752698074405e-06
3.962,-7.601580090000812e-06
3.963,-7.814298801410994e-06
3.964,-6.7085912299324264e-06
3.965,-6.166241712064088e-06
3.966,-6.948270180164165e-06
3.967,-7.2989289241628065e-06
3.968,-8.351171849077422e-06
3.969,-1.2833067504356284e-05
3.97,-1.3974540315308043e-05
3.971,-1.3213797179153583e-05
3.972,-1.4102831414403944e-05
3.973,-1.4211489451954606e-05
3.974,-1.5129728417983741e-05
3.975,-1.526787087987287e-05
3.976,-1.5254859080737236e-05
3.977,-1.4334705827533016e-05
3.978,-1.2961513821537305e-05
3.979,-1.2093572630664824e-05
3.98,-1.1487129365574529e-05
3.981,-1.2290457065109257e-05
3.982,-1.2238811231283052e-05
3.983,-1.3150773321498991e-05
3.984,-1.2826339440187501e-05
3.985,-1.3246936903824531e-05
3.986,-1.697735814194646e-05
3.987,-1.8669409628243638e-05
3.988,-1.666690214908545e-05
3.989,-1.611147464399308e-05
3.99,-2.0148660354193335e-05
3.991,-2.083357937454462e-05
3.992,-1.8635678407493112e-05
3.993,-1.9842033004432338e-05
3.994,-1.895887058359023e-05
3.995,-1.7011149965165547e-05
3.996,-1.674022756725175e-05
3.997,-1.5399832550327547e-05
3.998,-1.5450744046447056e-05
3.999,-1.5154696169445377e-05
4.0,-1.3468117503133765e-05
4.001,-1.1136332969831914e-05
4.002,-1.1688815015366116e-05
4.003,-1.4435971643320601e-05
4.004,-1.5667810488978304e-05
4.005,-1.4754635190856381e-05
4.006,-1.3249730603854816e-05
4.007,-1.459379643809839e-05
4.008,-1.6020714055771833e-05
4.009,-1.7964095692293095e-05
4.01,-2.0063982791169458e-05
4.011,-1.9573038848386856e-05
4.012,-1.866162459930621e-05
4.013,-1.762124578797297e-05
4.014,-1.6866016511486725e-05
4.015,-1.6131969661206166e-05
4.016,-1.507425217585898e-05
4.017,-1.4462446775829064e-05
4.018,-1.3074443799595598e-05
4.019,-1.1689429011092157e-05
4.02,-1.0780641877295293e-05
4.021,-1.0208585064782638e-05
4.022,-1.0115327021369747e-05
4.023,-9.920439036676173e-06
4.024,-9.718955618558662e-06
4.025,-9.981556937433588e-06
4.026,-1.2456962682759781e-05
4.027,-1.4176318039560499e-05
4.028,-1.495916466597764e-05
4.029,-1.6320440576029e-05
4.03,-1.8077856998885455e-05
4.031,-1.9058966758155876e-05
4.032,-1.9907270631948388e-05
4.033,-2.0086802332678784e-05
4.034,-1.908477998761617e-05
4.035,-1.8512097992899146e-05
4.036,-1.790163981754894e-05
4.037,-1.790459974381786e-05
4.038,-1.838518961765496e-05
4.039,-1.6914257344495456e-05
4.04,-1.5062442680315132e-05
4.041,-1.4293533496171477e-05
4.042,-1.4158658778587836e-05
4.043,-1.4391866109063334e-05
4.044,-1.4007490184407401e-05
4.045,-1.4099539151040685e-05
4.046,-1.5343124916974082e-05
4.047,-1.4897761943466149e-05
4.048,-1.2412176114774191e-05
4.049,-1.3630119048058986e-05
4.05,-1.6996587888973164e-05
4.051,-1.7663815442713387e-05
4.052,-1.6796423666403256e-05
4.053,-1.477522208465143e-05
4.054,-1.4999272613922278e-05
4.055,-1.5886019550107908e-05
4.056,-1.4469480362403187e-05
4.057,-1.3096689789867276e-05
4.058,-1.3422766911876123e-05
4.059,-1.1505114672202416e-05
4.06,-7.897349797709752e-06
4.061,-1.1143589280235166e-05
4.062,-1.2073684679090555e-05
4.063,-1.1799900825507187e-05
4.064,-1.431539039983119e-05
4.065,-1.3994634683625119e-05
4.066,-1.279582157241887e-05
4.067,-1.1964934540950218e-05
4.068,-1.4241150448567095e-05
4.069,-1.5363007563449428e-05
4.07,-1.597472185242002e-05
4.071,-1.6732008096450212e-05
4.072,-1.6006805323641648e-05
4.073,-1.7190409596233934e-05
4.074,-1.709467150677431e-05
4.075,-1.5651105898119222e-05
4.076,-1.4707968742233802e-05
4.077,-1.67255603782274e-05
4.078,-1.627019517071104e-05
4.079,-1.3107417015283765e-05
4.08,-1.2195123850445003e-05
4.081,-1.2277283660853034e-05
4.082,-1.2978876860382003e-05
4.083,-1.420258945294109e-05
4.084,-1.472761820141731e-05
4.085,-1.4910748634351962e-05
4.086,-1.708964827948982e-05
4.087,-1.858810212493022e-05
4.088,-2.1822725917042316e-05
4.089,-1.921054426668004e-05
4.09,-1.6276729384034058e-05
4.091,-2.0161771852343537e-05
4.092,-2.142740003197374e-05
4.093,-2.006067559741497e-05
4.094,-1.8675859120407712e-05
4.095,-1.8613845887094523e-05
4.096,-1.7339198726168704e-05
4.097,-1.4135029940579797e-05
4.098,-1.039618693087955e-05
4.099,-1.0621356349904136e-05
4.1,-1.3004804216415235e-05
