Time,Modified_Signal
0.0,-2.371104711381558e-05
0.001,-2.441602640528388e-05
0.002,-2.52053182467125e-05
0.003,-2.6064666995992593e-05
0.004,-2.5980633571499198e-05
0.005,-2.6140917861311353e-05
0.006,-2.6734645589148423e-05
0.007,-2.8252611513398004e-05
0.008,-2.87874722863245e-05
0.009,-2.823388395070844e-05
0.01,-2.8288580844600605e-05
0.011,-2.915039456113887e-05
0.012,-2.982021350684602e-05
0.013,-3.0400885455829786e-05
0.014,-3.10970672482543e-05
0.015,-3.0315027372856623e-05
0.016,-2.886240855464906e-05
0.017,-2.8947958597408553e-05
0.018,-2.8681238572252843e-05
0.019,-2.8472317974738582e-05
0.02,-2.863146668043933e-05
0.021,-2.7568853410896145e-05
0.022,-2.7194259987204617e-05
0.023,-2.5316819916900002e-05
0.024,-2.5144788860572072e-05
0.025,-2.588535329576513e-05
0.026,-2.5144482282392223e-05
0.027,-2.442682568688752e-05
0.028,-2.253566059616907e-05
0.029,-2.1972886003545025e-05
0.03,-2.1739064233208934e-05
0.031,-2.2733506042104475e-05
0.032,-2.545439494797791e-05
0.033,-2.669894512508194e-05
0.034,-2.5163586221927117e-05
0.035,-2.394416771814593e-05
0.036,-2.453617497027944e-05
0.037,-2.6534948909776296e-05
0.038,-2.563590145147972e-05
0.039,-2.3934719038378817e-05
0.04,-2.372754737014374e-05
0.041,-2.261115121217815e-05
0.042,-2.1883044224416074e-05
0.043,-2.174158494457389e-05
0.044,-2.2986036364161028e-05
0.045,-2.2516587899439162e-05
0.046,-2.11343399346734e-05
0.047,-1.9741252452946263e-05
0.048,-2.004006052424149e-05
0.049,-2.2034160549004253e-05
0.05,-2.0927472120745894e-05
0.051,-2.0324281142752237e-05
0.052,-2.0129070388274717e-05
0.053,-2.0646344015562563e-05
0.054,-2.1480452632073926e-05
0.055,-2.0935425348123715e-05
0.056,-1.991481487939785e-05
0.057,-2.0021561168345733e-05
0.058,-2.0557878221673413e-05
0.059,-2.052516793624811e-05
0.06,-2.0723963644739035e-05
0.061,-2.10539049947379e-05
0.062,-2.1413744622352605e-05
0.063,-2.0401385935211574e-05
0.064,-1.941395022124369e-05
0.065,-1.984787028678451e-05
0.066,-1.9499006934943546e-05
0.067,-1.97627838521881e-05
0.068,-2.0534335901237703e-05
0.069,-2.000866543841328e-05
0.07,-1.9380801093179952e-05
0.071,-1.9345953469030053e-05
0.072,-1.9799662443043042e-05
0.073,-2.2637931144423583e-05
0.074,-2.2957342261656422e-05
0.075,-2.1455153039616597e-05
0.076,-2.202936615340646e-05
0.077,-2.2378774552738037e-05
0.078,-2.1202979324967385e-05
0.079,-2.070238059108525e-05
0.08,-2.127814239209024e-05
0.081,-2.0932133409838314e-05
0.082,-2.0566846166091052e-05
0.083,-2.048529802933402e-05
0.084,-2.0590917909003232e-05
0.085,-2.0987422914481126e-05
0.086,-2.0478689490966806e-05
0.087,-1.9668623611639055e-05
0.088,-1.8461034507176283e-05
0.089,-1.675951615744595e-05
0.09,-1.9067340369385677e-05
0.091,-1.788736473809669e-05
0.092,-1.5021958157471527e-05
0.093,-1.8072945838040955e-05
0.094,-1.8741575031148094e-05
0.095,-1.8228501879167005e-05
0.096,-1.7533799040443196e-05
0.097,-1.8156983003055593e-05
0.098,-1.9997059329420007e-05
0.099,-1.8052583487215968e-05
0.1,-1.5621734440383315e-05
0.101,-1.5202397811846e-05
0.102,-1.5892255197166123e-05
0.103,-1.538887611037166e-05
0.104,-1.49898090794271e-05
0.105,-1.5992668573871062e-05
0.106,-1.459521473096537e-05
0.107,-1.4195423235000192e-05
0.108,-1.4891543179328893e-05
0.109,-1.43821412816048e-05
0.11,-1.3966131406958372e-05
0.111,-1.4142788957844649e-05
0.112,-1.4511750289265108e-05
0.113,-1.6172997881085692e-05
0.114,-1.5726832523966633e-05
0.115,-1.40738342331687e-05
0.116,-1.3814813979497398e-05
0.117,-1.395075860682565e-05
0.118,-1.5682771482955556e-05
0.119,-1.3812011501230426e-05
0.12,-1.2039633014759445e-05
0.121,-1.2766729147994339e-05
0.122,-1.2894280700193226e-05
0.123,-1.432311254396283e-05
0.124,-1.2453859044414404e-05
0.125,-9.58693959756398e-06
0.126,-9.3225449290261e-06
0.127,-9.460634325096334e-06
0.128,-9.900943507246192e-06
0.129,-8.343002426306815e-06
0.13,-8.486161861101558e-06
0.131,-9.729627372736558e-06
0.132,-1.0472498902195654e-05
0.133,-1.0713814114194086e-05
0.134,-1.0252593489887615e-05
0.135,-1.1087885156903878e-05
0.136,-1.011880751558899e-05
0.137,-1.014458787025157e-05
0.138,-9.16459549530438e-06
0.139,-8.478367847576322e-06
0.14,-8.885628964485729e-06
0.141,-7.686299448371068e-06
0.142,-8.180497814200044e-06
0.143,-6.868533354921591e-06
0.144,-6.150891040019008e-06
0.145,-6.0282092934858885e-06
0.146,-5.801251784177031e-06
0.147,-5.570874593082132e-06
0.148,-4.637990289860536e-06
0.149,-4.203530549130791e-06
0.15,-2.1684089627388825e-06
0.151,-2.633485657848009e-06
0.152,-3.5995352155553495e-06
0.153,-4.367219207052287e-06
0.154,-3.1370644328637484e-06
0.155,-1.7094476763279494e-06
0.156,-2.2845874777696534e-06
0.157,-2.6625431144399555e-06
0.158,-6.043220647423775e-06
0.159,-7.026385584442707e-06
0.16,-4.511681420213557e-06
0.161,-1.1986530659311962e-06
0.162,-3.8867739769527954e-06
0.163,-5.575475641132794e-06
0.164,-3.4641780052624946e-06
0.165,-4.152319396761967e-06
0.166,-4.039384542390892e-06
0.167,-2.4249293927221974e-06
0.168,-3.0860162521503256e-07
0.169,7.098440877420953e-07
0.17,1.305367062332835e-07
0.171,-2.0465142753920696e-06
0.172,-2.7214155705286958e-06
0.173,-1.5943807039157683e-06
0.174,3.4285016598251116e-08
0.175,-1.5357956116634098e-06
0.176,-2.405047939602273e-06
0.177,-2.2739190476343846e-06
0.178,-3.4428499719496603e-06
0.179,-3.5122479641836015e-06
0.18,-4.082460181519657e-06
0.181,-1.8537501494432202e-06
0.182,-1.1262782233452979e-06
0.183,-1.1000871027290166e-06
0.184,2.4906769853788593e-08
0.185,-2.5108464558286636e-07
0.186,-1.2277255769627835e-06
0.187,-1.704567741188505e-06
0.188,-1.6810680208871486e-06
0.189,-1.8566118831979077e-06
0.19,-2.030541631594261e-06
0.191,-2.6021883420492525e-06
0.192,-1.9709061415765865e-06
0.193,-2.836107349196785e-06
0.194,-3.7972969233033026e-06
0.195,-4.254104649314787e-06
0.196,-4.206313558728564e-06
0.197,-3.7538831937648518e-06
0.198,-3.2969665164582885e-06
0.199,-2.0359195004501153e-06
0.2,-2.8713027286324525e-06
0.201,-3.003874638980654e-06
0.202,-2.7345764016046798e-06
0.203,-3.164508758445254e-06
0.204,-3.594901498836096e-06
0.205,-3.927076565146288e-06
0.206,-2.9624060693778297e-06
0.207,-1.5022667416282509e-06
0.208,-1.7479925141810554e-06
0.209,-1.7008270622951302e-06
0.21,-2.0618781687112825e-06
0.211,-5.132075750470954e-06
0.212,-4.112135283799087e-06
0.213,-4.102528188482395e-06
0.214,-4.703460493215283e-06
0.215,-3.5148608063354538e-06
0.216,-5.2363782731552e-06
0.217,-6.867390824619321e-06
0.218,-6.807023626673714e-06
0.219,-6.354177240828034e-06
0.22,-7.207564619589591e-06
0.221,-6.565755701104004e-06
0.222,-6.427228049936844e-06
0.223,-6.7904217284847056e-06
0.224,-6.553796387030048e-06
0.225,-7.215888438531962e-06
0.226,-7.675366142650226e-06
0.227,-7.631080464955823e-06
0.228,-7.682109701324947e-06
0.229,-8.92779606048154e-06
0.23,-7.4677726727969494e-06
0.231,-7.401979831170994e-06
0.232,-8.730669657997346e-06
0.233,-9.054398816682968e-06
0.234,-8.17400933123893e-06
0.235,-7.090598026432842e-06
0.236,-9.405475536923982e-06
0.237,-9.520116240052337e-06
0.238,-8.636100827855537e-06
0.239,-9.755053535349618e-06
0.24,-1.027857627215621e-05
0.241,-1.0708182053812932e-05
0.242,-1.1345230191144673e-05
0.243,-1.0890865667714677e-05
0.244,-1.0045965016790645e-05
0.245,-9.811090804013893e-06
0.246,-1.1186456536869958e-05
0.247,-1.0871903466981817e-05
0.248,-8.766890338703332e-06
0.249,-8.670496682221859e-06
0.25,-1.0581439767796723e-05
0.251,-1.3698104847343457e-05
0.252,-1.2618587828220368e-05
0.253,-1.1240749069429098e-05
0.254,-1.2062276579249448e-05
0.255,-1.2980756540795094e-05
0.256,-1.5693748811211104e-05
0.257,-1.7298864841751015e-05
0.258,-1.4993845357297149e-05
0.259,-1.4576635119284493e-05
0.26,-1.564545217628493e-05
0.261,-1.589884917907133e-05
0.262,-1.653576459581594e-05
0.263,-1.5555561999043002e-05
0.264,-1.4558055997111403e-05
0.265,-1.4143523835048731e-05
0.266,-1.4612702176363266e-05
0.267,-1.34667690816654e-05
0.268,-1.310731170358528e-05
0.269,-1.323628070269943e-05
0.27,-1.3655932838828864e-05
0.271,-1.64687635903476e-05
0.272,-1.717743198717891e-05
0.273,-1.628468009951821e-05
0.274,-1.5493249795399686e-05
0.275,-1.5705799460543562e-05
0.276,-1.6724823361317464e-05
0.277,-1.7752576227318155e-05
0.278,-1.709100543852286e-05
0.279,-1.7241692930765802e-05
0.28,-1.6205808592851796e-05
0.281,-1.3984076531694448e-05
0.282,-1.4576755143119014e-05
0.283,-1.4783631461383329e-05
0.284,-1.5604029786752293e-05
0.285,-1.623683412441383e-05
0.286,-1.6580523525924544e-05
0.287,-1.4633219021373795e-05
0.288,-1.3292740480042557e-05
0.289,-1.5456671450845302e-05
0.29,-1.5422429820085864e-05
0.291,-1.6087341989011593e-05
0.292,-1.7248718220295904e-05
0.293,-1.8103926830840028e-05
0.294,-1.8250465015078093e-05
0.295,-1.758602426238618e-05
0.296,-1.940854857577226e-05
0.297,-1.991628399611687e-05
0.298,-1.8307818274470666e-05
0.299,-1.8682109900703584e-05
0.3,-1.8238506075875746e-05
0.301,-1.7776749593696383e-05
0.302,-1.809697495943894e-05
0.303,-1.7899694409764725e-05
0.304,-1.7385774792617285e-05
0.305,-1.655640651312108e-05
0.306,-1.651306594190471e-05
0.307,-1.7057472811586577e-05
0.308,-1.9191544193020307e-05
0.309,-1.8317346645631102e-05
0.31,-1.5937048078658584e-05
0.311,-1.725287074759372e-05
0.312,-1.9367046649876286e-05
0.313,-1.8881776385055737e-05
0.314,-1.7599192317461237e-05
0.315,-1.762132663516476e-05
0.316,-1.705008464917442e-05
0.317,-1.6587223432722125e-05
0.318,-1.673433567290763e-05
0.319,-1.8492838405424183e-05
0.32,-1.7463966135703163e-05
0.321,-1.5148767722825316e-05
0.322,-1.6848106320123196e-05
0.323,-1.6862661630481395e-05
0.324,-1.4692933744584126e-05
0.325,-1.4039247884185286e-05
0.326,-1.440175946522466e-05
0.327,-1.4480459020778642e-05
0.328,-1.5375176673384294e-05
0.329,-1.4785586011047093e-05
0.33,-1.5011207391367516e-05
0.331,-1.765141086360713e-05
0.332,-1.8105419049310802e-05
0.333,-1.6072310449179247e-05
0.334,-1.4351023739270495e-05
0.335,-1.604036367686499e-05
0.336,-1.5139009250890427e-05
0.337,-1.5145524681199868e-05
0.338,-1.825837379501294e-05
0.339,-1.777593818954339e-05
0.34,-1.7096539431563593e-05
0.341,-1.6818465353799007e-05
0.342,-1.6540000292834104e-05
0.343,-1.6259458883368842e-05
0.344,-1.6275222789995114e-05
0.345,-1.6685779531587982e-05
0.346,-1.6789762346459087e-05
0.347,-1.6785989869729403e-05
0.348,-1.7273504258165364e-05
0.349,-1.6851606310800867e-05
0.35,-1.731988610303646e-05
0.351,-1.8378247682360125e-05
0.352,-1.8226926467707834e-05
0.353,-1.9066498151452868e-05
0.354,-1.909787812004326e-05
0.355,-1.9222310680676362e-05
0.356,-1.9741347698863695e-05
0.357,-1.9056816604792282e-05
0.358,-1.9270778102630647e-05
0.359,-1.9385474302510294e-05
0.36,-1.9003268375070953e-05
0.361,-1.982657718807116e-05
0.362,-1.935779870877245e-05
0.363,-1.789923623059495e-05
0.364,-1.805302169535589e-05
0.365,-1.812104052265667e-05
0.366,-1.830486041756569e-05
0.367,-1.8305666601377875e-05
0.368,-1.842420579578437e-05
0.369,-1.8560741089412787e-05
0.37,-1.8415019531903126e-05
0.371,-1.9586253942211123e-05
0.372,-2.0073119995461364e-05
0.373,-2.037376917987036e-05
0.374,-2.1685857707732403e-05
0.375,-2.1506590939594015e-05
0.376,-2.1632782356995352e-05
0.377,-2.216092561536415e-05
0.378,-2.208727774333517e-05
0.379,-2.5307951145431886e-05
0.38,-2.571901172748675e-05
0.381,-2.5816580211863247e-05
0.382,-2.479693355307925e-05
0.383,-2.155660331110141e-05
0.384,-2.2492467893026218e-05
0.385,-2.2001835733892536e-05
0.386,-2.188251674990253e-05
0.387,-2.1032879754494163e-05
0.388,-2.2051893968091478e-05
0.389,-2.2839153261367874e-05
0.39,-2.1694882332233483e-05
0.391,-2.311992460918081e-05
0.392,-2.281571227740365e-05
0.393,-2.2984219417938814e-05
0.394,-2.242789981283207e-05
0.395,-2.214961148081093e-05
0.396,-2.305253044968271e-05
0.397,-2.3340056627590624e-05
0.398,-2.1715714892306887e-05
0.399,-2.1683054666388795e-05
0.4,-2.2445551280653193e-05
0.401,-2.0406512347542058e-05
0.402,-1.9868992172286566e-05
0.403,-2.2835716930180916e-05
0.404,-2.430902294350832e-05
0.405,-1.8190809915982723e-05
0.406,-1.5582510443244548e-05
0.407,-1.8285076534592786e-05
0.408,-1.849898327500385e-05
0.409,-1.8724249149670834e-05
0.41,-1.826047196790604e-05
0.411,-1.7906878780578858e-05
0.412,-1.806238770499245e-05
0.413,-1.8325679170559346e-05
0.414,-1.8695273792135424e-05
0.415,-1.846961387617651e-05
0.416,-1.7947145474802756e-05
0.417,-1.7726397926992412e-05
0.418,-1.7506057962771337e-05
0.419,-1.7885035689481344e-05
0.42,-1.6462520119059895e-05
0.421,-1.5638022318196995e-05
0.422,-1.7411404752623402e-05
0.423,-1.7082895933556314e-05
0.424,-1.525309003772645e-05
0.425,-1.5222931740782411e-05
0.426,-1.6493687055521413e-05
0.427,-1.636690148043105e-05
0.428,-1.6744347221155705e-05
0.429,-1.5927961630788526e-05
0.43,-1.4419779310409662e-05
0.431,-1.4721860508663845e-05
0.432,-1.473621855194828e-05
0.433,-1.4164749022701732e-05
0.434,-1.4509163284319926e-05
0.435,-1.497092873350271e-05
0.436,-1.6151217854369498e-05
0.437,-1.7050867766938907e-05
0.438,-1.5470351521930748e-05
0.439,-1.6409761912921607e-05
0.44,-1.706880807573387e-05
0.441,-1.4546824644268359e-05
0.442,-1.4642792752284861e-05
0.443,-1.5955371731323348e-05
0.444,-1.5682939973605946e-05
0.445,-1.592364312034757e-05
0.446,-1.507544751220949e-05
0.447,-1.4136196707742771e-05
0.448,-1.5503668841646873e-05
0.449,-1.6275632657384914e-05
0.45,-1.5749900203833796e-05
0.451,-1.5924374424892125e-05
0.452,-1.6597090182358187e-05
0.453,-1.5166247620833718e-05
0.454,-1.743023719131711e-05
0.455,-1.8687656078216913e-05
0.456,-1.7737316202531494e-05
0.457,-1.9678244381696496e-05
0.458,-1.7809675594767926e-05
0.459,-1.8131040612609538e-05
0.46,-1.884194949156019e-05
0.461,-1.8142172583891575e-05
0.462,-1.8831620781266283e-05
0.463,-1.8510326674642683e-05
0.464,-1.6978428186375207e-05
0.465,-1.573615601287357e-05
0.466,-1.578382591871148e-05
0.467,-1.64218365591341e-05
0.468,-1.7250673094614895e-05
0.469,-1.7870916418367834e-05
0.47,-1.8083257367421174e-05
0.471,-1.7788514852938548e-05
0.472,-1.8987656448906443e-05
0.473,-1.9481819642084685e-05
0.474,-1.6672331690219425e-05
0.475,-1.4960725876968703e-05
0.476,-1.5648751903979725e-05
0.477,-1.6138378231734758e-05
0.478,-1.5231784374690704e-05
0.479,-1.5231341470973834e-05
0.48,-1.5139579874959145e-05
0.481,-1.4259143049489177e-05
0.482,-1.4692727645136417e-05
0.483,-1.314301032406725e-05
0.484,-1.4112562589187486e-05
0.485,-1.4503755585950024e-05
0.486,-1.2518657523357474e-05
0.487,-1.2258926980663225e-05
0.488,-1.2825705896220894e-05
0.489,-1.2419516446118934e-05
0.49,-1.1940166287317079e-05
0.491,-1.358666674221008e-05
0.492,-1.1157168423754922e-05
0.493,-1.2048918533896334e-05
0.494,-1.2658243611552997e-05
0.495,-1.1780560865972681e-05
0.496,-1.471042042056494e-05
0.497,-1.4141579832573418e-05
0.498,-1.3967111173320435e-05
0.499,-1.717953978659281e-05
0.5,-1.7771012628521787e-05
0.501,-1.7333492874362862e-05
0.502,-1.775897630156901e-05
0.503,-1.7739723870855683e-05
0.504,-1.806850397293053e-05
0.505,-1.8338837030791605e-05
0.506,-1.9145234584062997e-05
0.507,-1.838342466471271e-05
0.508,-1.8050555227089845e-05
0.509,-1.7545367635163925e-05
0.51,-1.836833274205654e-05
0.511,-2.0621742917011277e-05
0.512,-1.9609754467847905e-05
0.513,-1.7638376247232585e-05
0.514,-1.4415401783360119e-05
0.515,-1.2450283995434656e-05
0.516,-1.2853953389399437e-05
0.517,-1.2738582521242615e-05
0.518,-1.1217301401076853e-05
0.519,-1.1003870325964175e-05
0.52,-1.0412318307994972e-05
0.521,-9.456556743556253e-06
0.522,-1.004997919171521e-05
0.523,-9.605059042646986e-06
0.524,-9.232957418300572e-06
0.525,-1.0043153824865963e-05
0.526,-1.0943111849988147e-05
0.527,-1.1337991560126116e-05
0.528,-1.1530419211845574e-05
0.529,-1.0220323466032248e-05
0.53,-1.0804845520594013e-05
0.531,-1.2878328502691598e-05
0.532,-1.4032389145075398e-05
0.533,-1.5156072281871313e-05
0.534,-1.6136086114198284e-05
0.535,-1.6957113597840506e-05
0.536,-1.760219277916486e-05
0.537,-1.85531565368642e-05
0.538,-1.8791120058273626e-05
0.539,-1.9497002566485517e-05
0.54,-1.9952068386244667e-05
0.541,-2.0638471449511982e-05
0.542,-2.0639786839225916e-05
0.543,-2.064151298066145e-05
0.544,-2.0831528625963896e-05
0.545,-2.0400489833810206e-05
0.546,-2.074215370017658e-05
0.547,-2.1053617608284e-05
0.548,-2.0335465180266703e-05
0.549,-2.0291812859716202e-05
0.55,-2.2030254050231536e-05
0.551,-2.086170088770977e-05
0.552,-1.7900126933504636e-05
0.553,-1.746221723807243e-05
0.554,-1.796693523614217e-05
0.555,-1.7135018693645123e-05
0.556,-1.6788419338924515e-05
0.557,-1.4949702791185804e-05
0.558,-1.4441426875575167e-05
0.559,-1.608551732993983e-05
0.56,-1.3702660224062919e-05
0.561,-1.2911730108004064e-05
0.562,-1.142927198233005e-05
0.563,-9.669053660214938e-06
0.564,-7.941703010505543e-06
0.565,-7.254441991883921e-06
0.566,-9.110926388612052e-06
0.567,-7.811196830516979e-06
0.568,-7.751743128600569e-06
0.569,-7.425680296600475e-06
0.57,-6.223030976917201e-06
0.571,-8.331105466866364e-06
0.572,-1.0434967265909782e-05
0.573,-1.2217969147496521e-05
0.574,-1.3562342301167003e-05
0.575,-1.4749819178556865e-05
0.576,-1.516226938085467e-05
0.577,-1.458232729561926e-05
0.578,-1.4593990256727108e-05
0.579,-1.5983166769031797e-05
0.58,-1.7738155792361246e-05
0.581,-1.8750040178168133e-05
0.582,-1.8912980035061274e-05
0.583,-1.8024394985112152e-05
0.584,-1.9185027862190403e-05
0.585,-2.1298886283090685e-05
0.586,-2.0773062567420272e-05
0.587,-2.0317436561790203e-05
0.588,-2.0744269903842894e-05
0.589,-2.0867704009899553e-05
0.59,-2.1803177460551382e-05
0.591,-2.2066781375794666e-05
0.592,-2.2574573714101943e-05
0.593,-2.404187511474245e-05
0.594,-2.4482569867070318e-05
0.595,-2.5308435794762743e-05
0.596,-2.7128526272018252e-05
0.597,-2.7948626252679283e-05
0.598,-2.8970802127423574e-05
0.599,-3.1293062488082336e-05
0.6,-3.29091435537341e-05
0.601,-3.540842920238421e-05
0.602,-3.8276011373410105e-05
0.603,-4.019289219116563e-05
0.604,-4.2536324649603506e-05
0.605,-4.478028423613881e-05
0.606,-4.719605960442756e-05
0.607,-4.965294646927198e-05
0.608,-5.2419025421739645e-05
0.609,-5.406200146400675e-05
0.61,-5.595008083873821e-05
0.611,-5.7952859253183366e-05
0.612,-5.99421949260262e-05
0.613,-6.12930400422453e-05
0.614,-6.088420518810114e-05
0.615,-6.059903312846818e-05
0.616,-5.9125960829708806e-05
0.617,-5.6858951846436824e-05
0.618,-5.309778498118147e-05
0.619,-5.0348189374667545e-05
0.62,-4.64218207586295e-05
0.621,-4.1236078359433406e-05
0.622,-3.621376672974831e-05
0.623,-2.9582611456188747e-05
0.624,-2.3474642095861882e-05
0.625,-1.6425459695005155e-05
0.626,-9.773409712103531e-06
0.627,-3.85868399662203e-06
0.628,3.077622426191902e-06
0.629,1.0794472709767668e-05
0.63,1.705184015640849e-05
0.631,2.4311623659766508e-05
0.632,3.303850069157344e-05
0.633,3.810069391523409e-05
0.634,4.317063024924407e-05
0.635,4.8225474584882e-05
0.636,5.1247524276452e-05
0.637,5.372445484307997e-05
0.638,5.4049411910724365e-05
0.639,5.532094913564135e-05
0.64,5.794281653674337e-05
0.641,5.902360817635746e-05
0.642,5.9276282325384845e-05
0.643,5.941757099920636e-05
0.644,5.726729893931215e-05
0.645,5.254763464569148e-05
0.646,4.678229786133953e-05
0.647,4.13957489216908e-05
0.648,3.721238558276304e-05
0.649,3.365577233287626e-05
0.65,3.334792580058328e-05
0.651,3.310867774744326e-05
0.652,3.1255134353129965e-05
0.653,2.9701247157231665e-05
0.654,2.8857507229372933e-05
0.655,2.613077002283772e-05
0.656,2.1424214061840675e-05
0.657,2.343743225891642e-05
0.658,2.2966650396723895e-05
0.659,1.8505063273692258e-05
0.66,1.8143275332444072e-05
0.661,1.6569829378117237e-05
0.662,1.2071804348506922e-05
0.663,1.0835461097905531e-05
0.664,9.646913858436199e-06
0.665,4.29280447999348e-06
0.666,3.460956731871737e-06
0.667,8.409888608000412e-07
0.668,-1.6751357970195309e-06
0.669,-2.9926381185156545e-06
0.67,-5.813547595051098e-06
0.671,-1.0036433777955565e-05
0.672,-1.6356253131696245e-05
0.673,-2.1164315852413898e-05
0.674,-2.7348373305977225e-05
0.675,-3.1392822865354957e-05
0.676,-3.627902320636466e-05
0.677,-3.968570967136336e-05
0.678,-4.2589496239320145e-05
0.679,-4.786544804121804e-05
0.68,-5.148770630841794e-05
0.681,-5.653014619606516e-05
0.682,-6.126704712085113e-05
0.683,-6.327375510802575e-05
0.684,-6.572731715044484e-05
0.685,-6.800706871551014e-05
0.686,-7.089515724717466e-05
0.687,-7.467698673484498e-05
0.688,-7.614157107860479e-05
0.689,-7.838178697770847e-05
0.69,-7.879452030442314e-05
0.691,-7.88807032899295e-05
0.692,-8.104524323289824e-05
0.693,-8.239684673585624e-05
0.694,-8.314774657595208e-05
0.695,-8.281334113002923e-05
0.696,-8.321175871519091e-05
0.697,-8.286336120535158e-05
0.698,-8.079020278759781e-05
0.699,-7.82154606928382e-05
0.7,-7.686285515472294e-05
0.701,-7.645607571904405e-05
0.702,-7.381823036066632e-05
0.703,-7.027133270131872e-05
0.704,-6.653584100955682e-05
0.705,-6.363026066752027e-05
0.706,-6.087081948233242e-05
0.707,-5.767122268588515e-05
0.708,-5.354249179331648e-05
0.709,-4.989288876788142e-05
0.71,-4.752792425739645e-05
0.711,-4.315044611041348e-05
0.712,-4.0360802027550194e-05
0.713,-3.955706812471663e-05
0.714,-3.803533343893194e-05
0.715,-3.459002903983917e-05
0.716,-3.0014289452755524e-05
0.717,-2.79003335693919e-05
0.718,-2.7939852122730577e-05
0.719,-2.652438912108124e-05
0.72,-2.294570534762275e-05
0.721,-2.279611309813763e-05
0.722,-2.176877270294379e-05
0.723,-1.7457943002453355e-05
0.724,-1.6159179756222564e-05
0.725,-1.5369477895721055e-05
0.726,-1.2287355512737583e-05
0.727,-1.221287944063674e-05
0.728,-1.2647634170063816e-05
0.729,-8.89463758494708e-06
0.73,-9.058208556716461e-06
0.731,-1.064379275120056e-05
0.732,-8.25775405021704e-06
0.733,-8.507139745643686e-06
0.734,-8.699428116005728e-06
0.735,-8.742267143609756e-06
0.736,-9.743212983860418e-06
0.737,-7.30947637727051e-06
0.738,-6.04768452715804e-06
0.739,-7.763665087744327e-06
0.74,-6.762257859637497e-06
0.741,-4.547158617754551e-06
0.742,-7.020798247960758e-06
0.743,-9.884259090721368e-06
0.744,-8.337229129011446e-06
0.745,-7.077993456626404e-06
0.746,-7.903461360305484e-06
0.747,-8.309226377338295e-06
0.748,-8.689655875435849e-06
0.749,-9.538006062067958e-06
0.75,-1.1746557876920668e-05
0.751,-1.3806768956570932e-05
0.752,-1.3609436780406038e-05
0.753,-1.4144868199821549e-05
0.754,-1.5703050801331337e-05
0.755,-1.7073821935878036e-05
0.756,-1.9947031734954495e-05
0.757,-1.9912697000184496e-05
0.758,-1.8561143466609612e-05
0.759,-2.1983134571065957e-05
0.76,-2.396998547710779e-05
0.761,-2.4713661690932243e-05
0.762,-2.6506862126271455e-05
0.763,-2.654308692225666e-05
0.764,-2.50166906738545e-05
0.765,-2.3822921992025665e-05
0.766,-2.5557950468130483e-05
0.767,-2.6918882177498195e-05
0.768,-2.7203764828621775e-05
0.769,-2.7011583559616305e-05
0.77,-2.834224821843444e-05
0.771,-2.8796572756550443e-05
0.772,-2.8176247137712604e-05
0.773,-2.9283801934759318e-05
0.774,-2.9822565578689016e-05
0.775,-2.9596614053868777e-05
0.776,-2.9910712717612555e-05
0.777,-2.9370249874141064e-05
0.778,-3.0381161760903554e-05
0.779,-3.0349848713655836e-05
0.78,-2.6883082465059185e-05
0.781,-2.748790479462895e-05
0.782,-2.757151807577961e-05
0.783,-2.664116864447934e-05
0.784,-2.6904024326082305e-05
0.785,-2.6167047881924945e-05
0.786,-2.5036868553067246e-05
0.787,-2.4219654262123055e-05
0.788,-2.542098736268014e-05
0.789,-2.414574707791113e-05
0.79,-2.4198001926534132e-05
0.791,-2.4780915479534384e-05
0.792,-2.349666871339878e-05
0.793,-2.4846402018262344e-05
0.794,-2.4530179580839566e-05
0.795,-2.4246978396395664e-05
0.796,-2.439470358097437e-05
0.797,-2.387023096969452e-05
0.798,-2.3669477219161452e-05
0.799,-2.3587496806206823e-05
0.8,-2.3318604459024303e-05
0.801,-2.2756520700499167e-05
0.802,-2.259453735864917e-05
0.803,-2.2025699137217137e-05
0.804,-2.304299667106594e-05
0.805,-2.4239565944245894e-05
0.806,-2.460888854803881e-05
0.807,-2.494498702196724e-05
0.808,-2.5342609467272103e-05
0.809,-2.629739775812289e-05
0.81,-2.4006034002611928e-05
0.811,-2.1566360418303577e-05
0.812,-1.9377468473816774e-05
0.813,-2.0439753990103648e-05
0.814,-2.1954935868204645e-05
0.815,-1.9626037184503172e-05
0.816,-1.98573285357863e-05
0.817,-2.0154234687527523e-05
0.818,-2.0223206740694804e-05
0.819,-1.9171563145547216e-05
0.82,-1.8007303916765146e-05
0.821,-1.863890330666737e-05
0.822,-1.8275086939696033e-05
0.823,-1.4124599974187078e-05
0.824,-1.2295973215033568e-05
0.825,-1.329729423832937e-05
0.826,-1.1935990498997372e-05
0.827,-1.1618631075058572e-05
0.828,-1.2350753165713897e-05
0.829,-1.223671872053439e-05
0.83,-1.117960565666884e-05
0.831,-1.0781137049354989e-05
0.832,-9.041650492849998e-06
0.833,-9.260108563108115e-06
0.834,-1.0734150011962392e-05
0.835,-1.1660180028507267e-05
0.836,-1.2733496660081051e-05
0.837,-1.2148449334407245e-05
0.838,-1.2298624404761103e-05
0.839,-1.157705178579337e-05
0.84,-1.0776426087614271e-05
0.841,-9.889335212070087e-06
0.842,-1.0208489162625424e-05
0.843,-1.1226941844801652e-05
0.844,-9.638298896500991e-06
0.845,-8.9369050774628e-06
0.846,-9.018005447512467e-06
0.847,-9.877875449978222e-06
0.848,-1.1313916059190655e-05
0.849,-1.0224711313649391e-05
0.85,-9.61004679959467e-06
0.851,-9.770888931144105e-06
0.852,-9.409326149553737e-06
0.853,-9.128474392662951e-06
0.854,-8.432350325228757e-06
0.855,-8.125716834018387e-06
0.856,-7.91390614519265e-06
0.857,-7.10262658840011e-06
0.858,-7.097759491472522e-06
0.859,-6.905152928335612e-06
0.86,-6.030419055108126e-06
0.861,-5.678741557575496e-06
0.862,-5.354699307198765e-06
0.863,-3.762111699728477e-06
0.864,-3.203910354093221e-06
0.865,-6.082040908968144e-06
0.866,-6.097397604328422e-06
0.867,-5.149792212720975e-06
0.868,-5.137957729295865e-06
0.869,-4.459586080747668e-06
0.87,-5.2113980103072595e-06
0.871,-5.189242275671262e-06
0.872,-5.3882203926543116e-06
0.873,-5.402832398185176e-06
0.874,-6.127138515272507e-06
0.875,-6.354931196675054e-06
0.876,-6.4799118133649195e-06
0.877,-7.995866241573616e-06
0.878,-7.696833784325402e-06
0.879,-7.377264229194714e-06
0.88,-6.532158376614472e-06
0.881,-7.257188049915742e-06
0.882,-5.448792392278468e-06
0.883,-1.1042481362495944e-06
0.884,-2.121712465392356e-06
0.885,-5.700238040797518e-06
0.886,-7.939760703576827e-06
0.887,-7.941061255408722e-06
0.888,-5.605703532593903e-06
0.889,-2.8359516983629874e-06
0.89,-3.4346702613056615e-06
0.891,-3.90521076789448e-06
0.892,-4.251289402987179e-06
0.893,-4.576859858716293e-06
0.894,-4.485985800144566e-06
0.895,-4.282717072159953e-06
0.896,-3.7709734684322874e-06
0.897,-3.2544394368468123e-06
0.898,-2.8364725477402597e-06
0.899,-2.820027925756452e-06
0.9,-7.076001696377288e-07
0.901,-4.011835843066469e-07
0.902,8.977491462983934e-07
0.903,8.882503825203559e-07
0.904,-3.301158042838731e-07
0.905,-9.573020402179167e-07
0.906,-2.0928190111461023e-06
0.907,-3.35787324783679e-07
0.908,1.1500279818640325e-07
0.909,6.610267719534491e-07
0.91,1.103958579502437e-06
0.911,1.3456040070526366e-06
0.912,7.878365596045628e-07
0.913,-1.567461882227153e-06
0.914,-2.118453993130082e-06
0.915,-1.2633922886684274e-06
0.916,-1.6006559973325508e-06
0.917,-2.287792206807693e-07
0.918,3.553529463841624e-06
0.919,2.9473753870563668e-06
0.92,2.4536732284425004e-06
0.921,5.173148292238752e-06
0.922,5.206342191205776e-06
0.923,4.25362139236639e-06
0.924,3.015187054642421e-06
0.925,1.3910846560742013e-06
0.926,1.7812120628668661e-06
0.927,3.1853249244519683e-06
0.928,3.303038575089735e-06
0.929,2.8338259672890387e-06
0.93,4.1770115372456495e-06
0.931,4.531761287911346e-06
0.932,3.897069750964748e-06
0.933,3.571744834960642e-06
0.934,1.2543918646333307e-06
0.935,1.0433983491448218e-06
0.936,2.936921171266395e-06
0.937,3.8328779548026845e-06
0.938,4.528944337726292e-06
0.939,5.622558751500177e-06
0.94,6.110936085388166e-06
0.941,5.3910913050558864e-06
0.942,5.65987370849983e-06
0.943,5.6140120541265525e-06
0.944,5.550170303669085e-06
0.945,5.965013207084476e-06
0.946,5.755280439805935e-06
0.947,6.117867507660945e-06
0.948,6.949911184150312e-06
0.949,6.148876860192747e-06
0.95,2.412644887373713e-06
0.951,3.2395927987476766e-06
0.952,5.328670209191228e-06
0.953,3.3794632387381742e-06
0.954,2.6922454710366627e-06
0.955,1.468012753807555e-06
0.956,7.084995626099253e-07
0.957,1.1161751720158507e-06
0.958,6.94218493504159e-07
0.959,4.647112692123326e-08
0.96,1.773689087114283e-07
0.961,-5.081470008146059e-07
0.962,-8.047376948790652e-07
0.963,-1.0067902453738218e-06
0.964,-1.4085543994457994e-06
0.965,-1.504288499496717e-06
0.966,-1.8884104181856238e-06
0.967,-3.655648971232581e-06
0.968,-4.2011910894628585e-06
0.969,-3.420820008393573e-06
0.97,-4.611039873974666e-06
0.971,-5.569182466221865e-06
0.972,-5.193492201838222e-06
0.973,-5.78318618011506e-06
0.974,-8.83848676557972e-06
0.975,-9.760625033258292e-06
0.976,-6.951814311148895e-06
0.977,-5.815194009419888e-06
0.978,-5.854744894639273e-06
0.979,-3.97517791664182e-06
0.98,-6.5817995922307e-06
0.981,-9.380357761915858e-06
0.982,-7.8768722339538e-06
0.983,-6.277455388308341e-06
0.984,-4.88812821059997e-06
0.985,-7.314637446830254e-06
0.986,-4.0622796038305224e-06
0.987,-2.4357373645747667e-06
0.988,-6.838933644895693e-06
0.989,-8.274907998467681e-06
0.99,-9.145719396148263e-06
0.991,-9.152378585609271e-06
0.992,-9.294812304367951e-06
0.993,-8.77186060467581e-06
0.994,-9.681307486112204e-06
0.995,-9.919943956898291e-06
0.996,-9.283661594255187e-06
0.997,-9.267573683275255e-06
0.998,-1.0866160116542718e-05
0.999,-1.2573431463803343e-05
1.0,-1.208310699882026e-05
1.001,-1.2688801020506402e-05
1.002,-1.1784211542939057e-05
1.003,-1.1663305362936998e-05
1.004,-1.2420493646746815e-05
1.005,-1.2250792504418687e-05
1.006,-1.2349963530345268e-05
1.007,-1.3814629963583501e-05
1.008,-1.4742364938712627e-05
1.009,-1.4431749228981261e-05
1.01,-1.458239689639824e-05
1.011,-1.3894948323532057e-05
1.012,-1.4871031172914817e-05
1.013,-1.531319086568043e-05
1.014,-1.5424793156040453e-05
1.015,-1.5909902269333764e-05
1.016,-1.6173138839039877e-05
1.017,-1.6519522497133124e-05
1.018,-1.5754304422615065e-05
1.019,-1.3882795421109474e-05
1.02,-1.4210195186589914e-05
1.021,-1.4941428283831032e-05
1.022,-1.4380992092854853e-05
1.023,-1.4632821486677336e-05
1.024,-1.4900174389124612e-05
1.025,-1.3585541603655214e-05
1.026,-1.2090583444593175e-05
1.027,-1.4016094769845023e-05
1.028,-1.5761999042124998e-05
1.029,-1.4527371068003737e-05
1.03,-1.471048711454977e-05
1.031,-1.4808900214330349e-05
1.032,-1.3719537670884895e-05
1.033,-1.6838817094679983e-05
1.034,-1.9062776755700807e-05
1.035,-1.8787215649717818e-05
1.036,-1.8407838451639385e-05
1.037,-1.9120400475930995e-05
1.038,-1.8520847879431618e-05
1.039,-1.6205448618625902e-05
1.04,-1.5170910098506069e-05
1.041,-1.6014480005479255e-05
1.042,-1.6734027479908793e-05
1.043,-1.612810252893808e-05
1.044,-1.7795972378899884e-05
1.045,-1.723763428915613e-05
1.046,-1.6053805165675676e-05
1.047,-1.7245889093917096e-05
1.048,-1.5715924629415823e-05
1.049,-1.3266514316531892e-05
1.05,-1.5200739430467243e-05
1.051,-1.6922063338702933e-05
1.052,-1.6034227144170795e-05
1.053,-1.4541141397766392e-05
1.054,-1.4646777651626653e-05
1.055,-1.585506347165025e-05
1.056,-1.576978424777345e-05
1.057,-1.4094494747837372e-05
1.058,-1.4232442873731672e-05
1.059,-1.4786507518270762e-05
1.06,-1.4559151811617077e-05
1.061,-1.4152392411997878e-05
1.062,-1.3967784862277406e-05
1.063,-1.4106424426290774e-05
1.064,-1.1268961259753073e-05
1.065,-1.0655628280580943e-05
1.066,-1.2066279699910437e-05
1.067,-1.2300437871410411e-05
1.068,-1.3057345921790321e-05
1.069,-1.3336023544194442e-05
1.07,-1.353532336825764e-05
1.071,-1.3353985461153968e-05
1.072,-1.3990687753832912e-05
1.073,-1.4444090512742654e-05
1.074,-1.4412873373306715e-05
1.075,-1.4795763898283332e-05
1.076,-1.4991557101147536e-05
1.077,-1.3699125860151027e-05
1.078,-1.3217422621091562e-05
1.079,-1.4345473225322017e-05
1.08,-1.4482364085156519e-05
1.081,-1.432722424512011e-05
1.082,-1.4479204101154875e-05
1.083,-1.5337452691368985e-05
1.084,-1.530109551571619e-05
1.085,-1.4569214786927846e-05
1.086,-1.4240833864216125e-05
1.087,-1.3214907382021538e-05
1.088,-1.3690318269532215e-05
1.089,-1.5365882477371064e-05
1.09,-1.4040361802999465e-05
1.091,-1.531248475532041e-05
1.092,-1.798097494219621e-05
1.093,-1.8044586023003475e-05
1.094,-1.7202141862288585e-05
1.095,-1.6452580169046754e-05
1.096,-1.869499762594194e-05
1.097,-1.8028694317834066e-05
1.098,-1.8053215169721618e-05
1.099,-1.8468386107125903e-05
1.1,-1.817434275927358e-05
1.101,-1.9771549735029567e-05
1.102,-1.7660808806907618e-05
1.103,-1.8043254729042787e-05
1.104,-2.0020337876420552e-05
1.105,-2.0193793407408428e-05
1.106,-1.86655971996984e-05
1.107,-1.8637909369380492e-05
1.108,-2.001300673138235e-05
1.109,-1.929320607429641e-05
1.11,-1.8180780581960352e-05
1.111,-1.6877872118139022e-05
1.112,-1.6886402381957937e-05
1.113,-1.8107986126369027e-05
1.114,-1.914384969980907e-05
1.115,-2.059475811662837e-05
1.116,-2.106095368375093e-05
1.117,-1.9942108913057595e-05
1.118,-2.123729603950776e-05
1.119,-2.1544974956793896e-05
1.12,-2.1363000792090394e-05
1.121,-2.0988651689345455e-05
1.122,-2.0718676679370524e-05
1.123,-2.174936280934058e-05
1.124,-2.0076620009807617e-05
1.125,-1.819608151949826e-05
1.126,-1.89032170916033e-05
1.127,-2.10934556926538e-05
1.128,-2.186231399634034e-05
1.129,-2.2005526686169172e-05
1.13,-2.2819174424893135e-05
1.131,-2.1099805332792826e-05
1.132,-1.9444545943728954e-05
1.133,-2.1451197874950425e-05
1.134,-2.3018316846389812e-05
1.135,-2.294527120525589e-05
1.136,-2.393227773540259e-05
1.137,-2.2980413237659874e-05
1.138,-2.3291601133411005e-05
1.139,-2.3968573143295185e-05
1.14,-2.0714806898777285e-05
1.141,-1.9434441128869744e-05
1.142,-1.9732170800554205e-05
1.143,-1.981312525406321e-05
1.144,-1.938273294026983e-05
1.145,-1.7946576817435715e-05
1.146,-1.881024478293051e-05
1.147,-2.0579179691261014e-05
1.148,-1.9958533536777548e-05
1.149,-1.9653030256842912e-05
1.15,-1.8566841343303797e-05
1.151,-1.750347804603496e-05
1.152,-1.6965703426022035e-05
1.153,-1.7155466884932927e-05
1.154,-1.817386308490142e-05
1.155,-1.6621116400514098e-05
1.156,-1.6696591240783905e-05
1.157,-1.669882776915071e-05
1.158,-1.6925601761156202e-05
1.159,-1.8474006598299848e-05
1.16,-1.734055472670113e-05
1.161,-1.6321295331883123e-05
1.162,-1.5711944514138006e-05
1.163,-1.5808023906430026e-05
1.164,-1.5205003468098031e-05
1.165,-1.7098444117509378e-05
1.166,-1.758413593527801e-05
1.167,-1.5558227871979602e-05
1.168,-1.6217345221309727e-05
1.169,-1.715869155813149e-05
1.17,-1.678013237413572e-05
1.171,-1.498025825234722e-05
1.172,-1.655842608381748e-05
1.173,-1.6914777522642988e-05
1.174,-1.5850234575587923e-05
1.175,-1.5666472907127102e-05
1.176,-1.5065874087910412e-05
1.177,-1.3851458604675269e-05
1.178,-1.4026801965272657e-05
1.179,-1.5095936659616597e-05
1.18,-1.4763243065426538e-05
1.181,-1.3533332609798504e-05
1.182,-1.2110926610990317e-05
1.183,-1.4300734230270474e-05
1.184,-1.5607332865851e-05
1.185,-1.4735054127746914e-05
1.186,-1.3587878254736144e-05
1.187,-1.336933948567675e-05
1.188,-1.1182444492299305e-05
1.189,-1.1629605535388186e-05
1.19,-1.4612589537622884e-05
1.191,-1.4032483790701158e-05
1.192,-1.5589678547331932e-05
1.193,-1.3683866304511314e-05
1.194,-1.2714057175576696e-05
1.195,-1.4078609385031005e-05
1.196,-1.417527360970797e-05
1.197,-1.4101249637531949e-05
1.198,-1.3153253623264452e-05
1.199,-1.2927594089013442e-05
1.2,-1.3620254743332702e-05
1.201,-1.392698217182729e-05
1.202,-1.4143376478011206e-05
1.203,-1.35649830182173e-05
1.204,-1.2387383470388732e-05
1.205,-1.3906284595100416e-05
1.206,-1.4117603179934233e-05
1.207,-1.421754579783405e-05
1.208,-1.5502682149858103e-05
1.209,-1.5570010897806764e-05
1.21,-1.8117017019146474e-05
1.211,-1.734171983385145e-05
1.212,-1.554271096039135e-05
1.213,-1.8519181557933906e-05
1.214,-1.9470938307213498e-05
1.215,-1.839840767793613e-05
1.216,-1.730262813135756e-05
1.217,-1.688523001847982e-05
1.218,-1.594840306276821e-05
1.219,-1.7294851466431183e-05
1.22,-1.9227736855121547e-05
1.221,-1.8050609479923587e-05
1.222,-1.676732832834996e-05
1.223,-1.648197105631215e-05
1.224,-1.6398734936853093e-05
1.225,-1.5821830322659102e-05
1.226,-1.5155368429490854e-05
1.227,-1.5603245556050485e-05
1.228,-1.486902614997981e-05
1.229,-1.4255827395841126e-05
1.23,-1.6366208224422756e-05
1.231,-1.610206580870268e-05
1.232,-1.4964542705968587e-05
1.233,-1.5153947814836589e-05
1.234,-1.50696942291004e-05
1.235,-1.5110256878999665e-05
1.236,-1.5673152549429788e-05
1.237,-1.5454944452452343e-05
1.238,-1.4651273011059666e-05
1.239,-1.7056913889831355e-05
1.24,-1.9465863597793128e-05
1.241,-1.717145220580708e-05
1.242,-1.5866481885715183e-05
1.243,-1.764338911543712e-05
1.244,-1.859442753051988e-05
1.245,-1.8811867567672565e-05
1.246,-1.8788208270237306e-05
1.247,-1.6916395940132984e-05
1.248,-1.66900437553409e-05
1.249,-1.9003646054076658e-05
1.25,-1.965278074065366e-05
1.251,-1.9834293213484973e-05
1.252,-1.864645536703104e-05
1.253,-1.8389093584830226e-05
1.254,-1.886368022113509e-05
1.255,-1.7273383857830256e-05
1.256,-1.5123074607358368e-05
1.257,-1.4019281889988839e-05
1.258,-1.4670103416459763e-05
1.259,-1.3985065519868567e-05
1.26,-1.2974936463168028e-05
1.261,-1.1751495855805907e-05
1.262,-1.1427264796932854e-05
1.263,-1.121520277366745e-05
1.264,-8.62837863173601e-06
1.265,-8.979624054831443e-06
1.266,-9.08117889423965e-06
1.267,-9.044338342883765e-06
1.268,-1.1079112315923596e-05
1.269,-1.0193907459566914e-05
1.27,-8.795241946231356e-06
1.271,-1.1887502623228682e-05
1.272,-1.407275316999411e-05
1.273,-1.3650600702694633e-05
1.274,-1.4618126772645432e-05
1.275,-1.5869886974289135e-05
1.276,-1.619798145668374e-05
1.277,-1.6692196574552028e-05
1.278,-1.794021578233438e-05
1.279,-1.8327895733186512e-05
1.28,-1.8839601462692518e-05
1.281,-1.9258592582611894e-05
1.282,-1.836745064952822e-05
1.283,-1.8948536368700274e-05
1.284,-1.8384464100029317e-05
1.285,-1.7358580297516584e-05
1.286,-1.965543207214006e-05
1.287,-2.2561212045066442e-05
1.288,-2.2664166064828872e-05
1.289,-2.2154951196094127e-05
1.29,-2.2626932632447216e-05
1.291,-2.287640981096188e-05
1.292,-2.290276396878699e-05
1.293,-2.280852162614681e-05
1.294,-2.229933094017678e-05
1.295,-2.108385047555891e-05
1.296,-2.1273552600448725e-05
1.297,-1.8982446355502258e-05
1.298,-1.7026727174779663e-05
1.299,-1.7224363176648954e-05
1.3,-1.579462981192871e-05
1.301,-1.4957606384150098e-05
1.302,-1.353364928160826e-05
1.303,-1.3342857633526073e-05
1.304,-1.4504547487828799e-05
1.305,-1.0236750485756688e-05
1.306,-7.255752375151504e-06
1.307,-7.775685572776606e-06
1.308,-8.108188386049493e-06
1.309,-9.062141481506905e-06
1.31,-1.2143489801196615e-05
1.311,-1.145515545184147e-05
1.312,-4.7970442084965665e-06
1.313,-4.1661452759737735e-06
1.314,-7.756720934065872e-06
1.315,-7.5605797550546154e-06
1.316,-8.067424321321199e-06
1.317,-9.765261879756013e-06
1.318,-9.640864233066922e-06
1.319,-9.980261460393584e-06
1.32,-1.026925284202055e-05
1.321,-1.0893917681198302e-05
1.322,-1.194110859875049e-05
1.323,-1.2398910333595613e-05
1.324,-1.2857048105998245e-05
1.325,-1.2407231162938524e-05
1.326,-1.304341918096645e-05
1.327,-1.266200168898179e-05
1.328,-1.3261883514280864e-05
1.329,-1.5244472360113287e-05
1.33,-1.5213567892342917e-05
1.331,-1.8575155040533137e-05
1.332,-2.163710749572111e-05
1.333,-2.0908810504659075e-05
1.334,-1.9800714913841658e-05
1.335,-2.0523836909277465e-05
1.336,-2.218921994366824e-05
1.337,-2.3007376869242077e-05
1.338,-2.338773124612767e-05
1.339,-2.4538077135389657e-05
1.34,-2.6864076394978745e-05
1.341,-2.8168811578700354e-05
1.342,-2.9252411016309404e-05
1.343,-3.111176057042321e-05
1.344,-3.3540313985283026e-05
1.345,-3.542801074249052e-05
1.346,-3.7361307013070806e-05
1.347,-4.112332174833607e-05
1.348,-4.3694096296857246e-05
1.349,-4.6650962288586186e-05
1.35,-5.0069009007581625e-05
1.351,-5.2921638196354186e-05
1.352,-5.638119130498094e-05
1.353,-5.981963171364631e-05
1.354,-6.190926250109708e-05
1.355,-6.332345896997917e-05
1.356,-6.523739442058959e-05
1.357,-6.492873761415922e-05
1.358,-6.387830099082146e-05
1.359,-6.367061998962017e-05
1.36,-6.209444572068115e-05
1.361,-5.9643135705295774e-05
1.362,-5.64149303521146e-05
1.363,-5.3313106185023965e-05
1.364,-4.954600047574954e-05
1.365,-4.452690574745194e-05
1.366,-3.937383648437051e-05
1.367,-3.370917418484477e-05
1.368,-2.7859200510757434e-05
1.369,-2.2853531601521412e-05
1.37,-1.7424469530769043e-05
1.371,-1.1106289297551582e-05
1.372,-4.3344815858074e-06
1.373,3.5550272607441808e-06
1.374,1.1726656052845408e-05
1.375,1.9045928495599784e-05
1.376,2.6580190795981434e-05
1.377,3.3799267530425154e-05
1.378,3.9976038211553345e-05
1.379,4.54869195677535e-05
1.38,4.58122415673608e-05
1.381,4.67365085820654e-05
1.382,5.114854068269246e-05
1.383,5.4041493778545395e-05
1.384,5.731276102973605e-05
1.385,6.066376156178044e-05
1.386,6.0599625879255975e-05
1.387,5.922879040485617e-05
1.388,5.8762516167828054e-05
1.389,5.341434875234617e-05
1.39,4.749953812990006e-05
1.391,4.6234437897426475e-05
1.392,4.523590370228652e-05
1.393,4.1520710254849315e-05
1.394,3.670500532886109e-05
1.395,3.460381756848604e-05
1.396,3.493063281705814e-05
1.397,3.7997051130867656e-05
1.398,3.8312533730357886e-05
1.399,3.54842459704366e-05
1.4,3.33169990882416e-05
1.401,3.151329012155357e-05
1.402,2.9473436095234313e-05
1.403,2.6995795454204863e-05
1.404,2.6077066880164958e-05
1.405,2.271265315580724e-05
1.406,1.789707571183557e-05
1.407,1.4524423970190737e-05
1.408,1.208882262557619e-05
1.409,8.684899611959147e-06
1.41,5.508237687103087e-06
1.411,2.2557933228971233e-06
1.412,-1.0737321198886916e-06
1.413,-5.579582176374336e-06
1.414,-1.0158707066999505e-05
1.415,-1.3305605994889093e-05
1.416,-1.8112255658331953e-05
1.417,-2.3568127731334104e-05
1.418,-2.7560295053039835e-05
1.419,-2.977362329748868e-05
1.42,-3.529104206674764e-05
1.421,-4.139388675498533e-05
1.422,-4.576230025160758e-05
1.423,-4.697568165956169e-05
1.424,-4.881316775786339e-05
1.425,-5.245413197719747e-05
1.426,-5.4778685209171944e-05
1.427,-6.246816284112605e-05
1.428,-6.980558298954527e-05
1.429,-7.237606196951298e-05
1.43,-7.246717454292986e-05
1.431,-7.466924837810896e-05
1.432,-7.617558435952914e-05
1.433,-7.918259683127085e-05
1.434,-8.258987045654174e-05
1.435,-8.050013304056268e-05
1.436,-8.151914630604632e-05
1.437,-8.335551914297186e-05
1.438,-8.432045019591635e-05
1.439,-8.342740872924442e-05
1.44,-8.239176445955029e-05
1.441,-8.163037841457344e-05
1.442,-8.13611678307064e-05
1.443,-8.070265861415505e-05
1.444,-7.81735389559516e-05
1.445,-7.719222731563492e-05
1.446,-7.42764671943819e-05
1.447,-7.314295994114793e-05
1.448,-7.250704532248528e-05
1.449,-6.858243779594e-05
1.45,-6.608102442410305e-05
1.451,-6.291272822299937e-05
1.452,-5.9785438529117144e-05
1.453,-5.670500776907559e-05
1.454,-5.317531189769133e-05
1.455,-5.009836980248436e-05
1.456,-4.677451521715858e-05
1.457,-4.30026131962666e-05
1.458,-4.058031202076577e-05
1.459,-3.8404320560580346e-05
1.46,-3.507070063436158e-05
1.461,-3.1775163784456144e-05
1.462,-2.881336212016241e-05
1.463,-2.6381163456149586e-05
1.464,-2.427490185583779e-05
1.465,-2.269159584222393e-05
1.466,-2.042912791359104e-05
1.467,-1.828638054498506e-05
1.468,-1.6763325510296582e-05
1.469,-1.436106506416737e-05
1.47,-1.3181825217759719e-05
1.471,-1.2628902969861806e-05
1.472,-1.2006570861186086e-05
1.473,-1.1019943557296236e-05
1.474,-1.0774812294049983e-05
1.475,-1.0577453907077745e-05
1.476,-8.334421791437672e-06
1.477,-9.052326486998689e-06
1.478,-9.237613657227345e-06
1.479,-7.996347031691711e-06
1.48,-7.734003432832375e-06
1.481,-7.255286330844324e-06
1.482,-4.663963499501649e-06
1.483,-2.6627333188433177e-06
1.484,-5.053123130402491e-06
1.485,-5.9354218421680126e-06
1.486,-8.408647749534398e-06
1.487,-8.870551329983864e-06
1.488,-5.6176516254381835e-06
1.489,-7.545303785349853e-06
1.49,-9.347794438575228e-06
1.491,-1.04184608194207e-05
1.492,-1.1449829012376648e-05
1.493,-1.0533766312744814e-05
1.494,-1.1861642530637867e-05
1.495,-1.252449509005806e-05
1.496,-1.3513192982092277e-05
1.497,-1.601859500430723e-05
1.498,-1.7231698234181267e-05
1.499,-1.744377331534721e-05
1.5,-1.8846483850754136e-05
1.501,-2.173198796386504e-05
1.502,-2.139302087441608e-05
1.503,-2.0122958106579413e-05
1.504,-2.0915859674182998e-05
1.505,-2.2466496242750364e-05
1.506,-2.3670358828556795e-05
1.507,-2.472365404269146e-05
1.508,-2.5123287210873597e-05
1.509,-2.5066835891003015e-05
1.51,-2.6052516369601728e-05
1.511,-2.7479145650688913e-05
1.512,-2.8646101266862012e-05
1.513,-2.9153280957827238e-05
1.514,-2.9101063895660076e-05
1.515,-3.0290274711001722e-05
1.516,-2.9922151114451474e-05
1.517,-2.8898315437651256e-05
1.518,-2.9720749963705036e-05
1.519,-3.069177549994968e-05
1.52,-3.101403228858595e-05
1.521,-2.9990462069858066e-05
1.522,-2.852428992186743e-05
1.523,-2.6119004409642724e-05
1.524,-2.7078334587758996e-05
1.525,-2.8106222514529617e-05
1.526,-2.8906790145558084e-05
1.527,-2.9284299769548407e-05
1.528,-2.6443107514917363e-05
1.529,-2.7687609873662074e-05
1.53,-2.7322183638231385e-05
1.531,-2.6651120105281273e-05
1.532,-2.6678554843954934e-05
1.533,-2.4408394732896794e-05
1.534,-2.5344244318175036e-05
1.535,-2.698933381460345e-05
1.536,-2.614645124981734e-05
1.537,-2.6117881322016235e-05
1.538,-2.670535350121425e-05
1.539,-2.5310001747692973e-05
1.54,-2.4932337952744393e-05
1.541,-2.5472240833334476e-05
1.542,-2.6028961546365932e-05
1.543,-2.3501146746398437e-05
1.544,-2.0586879213263066e-05
1.545,-2.1383735546072382e-05
1.546,-2.2588859782675026e-05
1.547,-2.319905118451207e-05
1.548,-2.3010863851810598e-05
1.549,-2.2820715327563505e-05
1.55,-2.2525000933000217e-05
1.551,-2.242021027125026e-05
1.552,-2.2503042154610614e-05
1.553,-2.237051416452857e-05
1.554,-2.2920063147197002e-05
1.555,-2.4349633181167285e-05
1.556,-2.3257747920720146e-05
1.557,-2.194356470863315e-05
1.558,-2.1906908448176676e-05
1.559,-2.0948283905960807e-05
1.56,-2.0668865860272603e-05
1.561,-2.05704672866521e-05
1.562,-1.975548655477772e-05
1.563,-1.892683536876043e-05
1.564,-1.8787849887680392e-05
1.565,-1.8142188087279245e-05
1.566,-1.7493716942512854e-05
1.567,-1.704639340324013e-05
1.568,-1.6204143385307262e-05
1.569,-1.6170743095550756e-05
1.57,-1.644970694638266e-05
1.571,-1.6244186094227466e-05
1.572,-1.5556881262774003e-05
1.573,-1.538997299925201e-05
1.574,-1.5845071877628264e-05
1.575,-1.5923190429418528e-05
1.576,-1.5224737777380382e-05
1.577,-1.5249537099330236e-05
1.578,-1.4196865190253328e-05
1.579,-1.2665512552990222e-05
1.58,-1.3553861662829859e-05
1.581,-1.4959980349332264e-05
1.582,-1.1681726646798277e-05
1.583,-9.616861006225961e-06
1.584,-1.2463161454742644e-05
1.585,-1.2518537146207387e-05
1.586,-1.1581135775680783e-05
1.587,-9.74944053109734e-06
1.588,-1.182235262163886e-05
1.589,-1.2099255941607264e-05
1.59,-9.780061082791556e-06
1.591,-1.1265226673968845e-05
1.592,-9.555756875458643e-06
1.593,-8.8531747584009e-06
1.594,-8.259472219284412e-06
1.595,-8.277037985877758e-06
1.596,-6.908566127089933e-06
1.597,-6.856948253975972e-06
1.598,-1.052515326248306e-05
1.599,-8.71609899491604e-06
1.6,-6.932520565722134e-06
1.601,-5.776840293006834e-06
1.602,-5.351044191473678e-06
1.603,-8.756569813183707e-06
1.604,-9.794209874408617e-06
1.605,-8.264035591310687e-06
1.606,-7.96534298190094e-06
1.607,-7.996624600026987e-06
1.608,-8.155568277160478e-06
1.609,-9.139083491418166e-06
1.61,-8.443354995121236e-06
1.611,-8.563922348197848e-06
1.612,-9.395783060833638e-06
1.613,-8.833516179656994e-06
1.614,-9.8714223895289e-06
1.615,-1.040367607604278e-05
1.616,-1.0524484325662425e-05
1.617,-1.0628247548863035e-05
1.618,-1.0109716308139986e-05
1.619,-1.0464139021939836e-05
1.62,-9.28739549506335e-06
1.621,-8.576111686563518e-06
1.622,-8.727751751666725e-06
1.623,-8.840684162785263e-06
1.624,-1.0314219599014921e-05
1.625,-1.2048619262102228e-05
1.626,-9.845073295087623e-06
1.627,-5.9056500111904334e-06
1.628,-7.033217647989906e-06
1.629,-7.131341309394865e-06
1.63,-7.304158611268836e-06
1.631,-9.15623827527598e-06
1.632,-9.292426493454335e-06
1.633,-7.017686292609341e-06
1.634,-6.636935348487838e-06
1.635,-6.15488772724249e-06
1.636,-6.47590486535814e-06
1.637,-8.3038607454683e-06
1.638,-5.042025697628039e-06
1.639,-5.692972573221239e-06
1.64,-7.358508226940888e-06
1.641,-5.9396323310107195e-06
1.642,-4.936524568375897e-06
1.643,-3.7485602436553887e-06
1.644,-4.5743533488759536e-06
1.645,-6.511825161706572e-06
1.646,-7.258295571683668e-06
1.647,-6.31059355640227e-06
1.648,-3.865182592357502e-06
1.649,-1.5182963064310607e-06
1.65,-2.86607937037002e-06
1.651,-4.704728521901488e-06
1.652,-3.630628665396088e-06
1.653,-2.7404792582942124e-06
1.654,-3.531406616107302e-06
1.655,-4.601058351591485e-06
1.656,-4.247676879838107e-06
1.657,-3.27014974286895e-06
1.658,-2.468035403401864e-06
1.659,-1.841564093697659e-06
1.66,-1.7916142464274032e-06
1.661,-1.019665944928691e-06
1.662,-4.2773367600769664e-07
1.663,1.8171858184279842e-07
1.664,-6.941237240422046e-07
1.665,1.4168306448577377e-07
1.666,2.85955014938577e-07
1.667,6.354956214158339e-07
1.668,2.6872070835183323e-06
1.669,1.9381935041557394e-06
1.67,2.1858520446288396e-06
1.671,1.8279486078846843e-06
1.672,1.4626752833371015e-06
1.673,1.5886875528420254e-06
1.674,1.0051200971458805e-06
1.675,1.1115809224712914e-06
1.676,5.081244134674458e-07
1.677,9.95204776954767e-07
1.678,1.873612137305697e-06
1.679,2.5443942479078556e-06
1.68,2.208767366543409e-06
1.681,1.2680202829206323e-06
1.682,2.223415766763184e-06
1.683,3.776093813732771e-06
1.684,4.42698099956718e-06
1.685,3.9767100124841e-06
1.686,2.825553029158893e-06
1.687,3.3733720458299562e-06
1.688,4.119588594514036e-06
1.689,3.263174491116906e-06
1.69,2.4026644076053063e-06
1.691,1.7361901674344781e-06
1.692,2.261535766790525e-06
1.693,2.7762112588916967e-06
1.694,2.277542838551529e-06
1.695,1.2627757610606146e-06
1.696,1.1291861512724545e-06
1.697,-1.2580267096312416e-07
1.698,-3.0450398626883684e-07
1.699,1.6911436852690276e-06
1.7,1.6596784765837501e-06
1.701,3.600203251207422e-06
1.702,4.312455970330131e-06
1.703,1.0968590611449105e-06
1.704,8.54545240839083e-07
1.705,2.2873581014731978e-06
1.706,1.6978266890896718e-06
1.707,-1.5108857185470747e-06
1.708,-1.735057453314342e-06
1.709,5.294932130335953e-07
1.71,-8.127097378211713e-07
1.711,-2.656933558782445e-06
1.712,-3.7983814586610925e-06
1.713,-4.632343611307053e-06
1.714,-5.05434918521173e-06
1.715,-3.3603139937660796e-06
1.716,-2.946678430147659e-06
1.717,-5.9105306105438784e-06
1.718,-6.549710097562406e-06
1.719,-4.362888197698783e-06
1.72,-3.849621601597983e-06
1.721,-6.010377036769739e-06
1.722,-4.846525597795016e-06
1.723,-5.260306473612134e-06
1.724,-6.654760867514412e-06
1.725,-4.133637964295298e-06
1.726,-5.001275802194829e-06
1.727,-5.362460818343203e-06
1.728,-4.922270621802313e-06
1.729,-6.1859051789515825e-06
1.73,-6.358512048162027e-06
1.731,-6.34501155707703e-06
1.732,-6.549927865965072e-06
1.733,-6.577231701503739e-06
1.734,-6.730200181491461e-06
1.735,-7.411298594238353e-06
1.736,-8.122088265622472e-06
1.737,-8.663163767196478e-06
1.738,-8.234121720913272e-06
1.739,-7.4335623749760305e-06
1.74,-8.359123999079843e-06
1.741,-9.007549015702741e-06
1.742,-9.274779687239598e-06
1.743,-9.156080155631617e-06
1.744,-9.346180718165521e-06
1.745,-1.0639439452884327e-05
1.746,-1.1830015707115496e-05
1.747,-1.1812049554499831e-05
1.748,-1.2379841124300218e-05
1.749,-1.3928023719035982e-05
1.75,-1.5051724862355732e-05
1.751,-1.6546709850638072e-05
1.752,-1.5809503003856192e-05
1.753,-1.6137482601720744e-05
1.754,-1.8328946421964756e-05
1.755,-1.7583145835782948e-05
1.756,-1.6100287523982055e-05
1.757,-1.6681503016926406e-05
1.758,-1.7428787391365813e-05
1.759,-1.4644909537556176e-05
1.76,-1.3933297402364634e-05
1.761,-1.2797902483094801e-05
1.762,-1.2043048561800253e-05
1.763,-1.4673270205625475e-05
1.764,-1.4893146896396947e-05
1.765,-1.4907138780544228e-05
1.766,-1.4319429944231e-05
1.767,-1.4733784821733802e-05
1.768,-1.4153422848552605e-05
1.769,-1.4080915792521556e-05
1.77,-1.3718111360818988e-05
1.771,-1.3266085718337496e-05
1.772,-1.4825126497943916e-05
1.773,-1.2994746773559807e-05
1.774,-1.217372934243985e-05
1.775,-1.2960199563705028e-05
1.776,-1.4451723965312264e-05
1.777,-1.6145430898068124e-05
1.778,-1.3238148716190574e-05
1.779,-1.082655632761711e-05
1.78,-1.1807340506214883e-05
1.781,-1.2277354108104855e-05
1.782,-1.1833769294106367e-05
1.783,-1.0674220031010904e-05
1.784,-1.0496928519666515e-05
1.785,-1.0900810764115486e-05
1.786,-1.1685557232935905e-05
1.787,-1.0351685445155082e-05
1.788,-8.500562307231294e-06
1.789,-1.1634395099328133e-05
1.79,-1.2756191120463654e-05
1.791,-1.2069687113839836e-05
1.792,-1.2279250666580097e-05
1.793,-1.2889756774547154e-05
1.794,-1.4006443648014241e-05
1.795,-1.1934752576896553e-05
1.796,-9.980157249299032e-06
1.797,-9.547988304581316e-06
1.798,-9.443259088925335e-06
1.799,-9.87049856154832e-06
1.8,-9.633597074535578e-06
1.801,-8.535670327251582e-06
1.802,-7.378946192743916e-06
1.803,-7.664678350061783e-06
1.804,-8.89308976001021e-06
1.805,-8.263348024067452e-06
1.806,-7.073573601858434e-06
1.807,-8.320880768643194e-06
1.808,-9.401450108457103e-06
1.809,-1.021063029799494e-05
1.81,-1.0143065976361377e-05
1.811,-9.392847648649086e-06
1.812,-1.0853678864991818e-05
1.813,-1.0819055374193182e-05
1.814,-1.018245058928596e-05
1.815,-1.053750153204526e-05
1.816,-1.007818944844472e-05
1.817,-1.059900950440458e-05
1.818,-1.2395124371407318e-05
1.819,-1.2762497078927782e-05
1.82,-1.3097999223831451e-05
1.821,-1.4099491459872224e-05
1.822,-1.096587411331482e-05
1.823,-9.497106750980775e-06
1.824,-1.2394196530627777e-05
1.825,-1.0459156156191931e-05
1.826,-7.694933208653455e-06
1.827,-7.205313495821384e-06
1.828,-8.994801833030051e-06
1.829,-1.0468484307565401e-05
1.83,-9.03187657344971e-06
1.831,-9.390763056353445e-06
1.832,-9.851032113085658e-06
1.833,-1.0118512184603983e-05
1.834,-1.0798813810035905e-05
1.835,-1.09971820417951e-05
1.836,-1.1118363333752959e-05
1.837,-1.0666490385428785e-05
1.838,-1.124498773893546e-05
1.839,-9.756500168464334e-06
1.84,-8.702845102761868e-06
1.841,-9.484989508459841e-06
1.842,-8.203050865086957e-06
1.843,-7.756321108573694e-06
1.844,-8.543311734201203e-06
1.845,-8.161817654173374e-06
1.846,-9.308996917314424e-06
1.847,-9.48146303230751e-06
1.848,-8.275386399993517e-06
1.849,-8.986601258043541e-06
1.85,-1.0810714571202612e-05
1.851,-1.144321345576666e-05
1.852,-1.2379567996949352e-05
1.853,-1.2215326687279116e-05
1.854,-1.2846202164779375e-05
1.855,-1.2368145440552967e-05
1.856,-1.1577407354002395e-05
1.857,-1.5170586557042207e-05
1.858,-1.4844663883295706e-05
1.859,-1.3897023482534796e-05
1.86,-1.3925461574618218e-05
1.861,-1.2428184083729619e-05
1.862,-1.2503794738992313e-05
1.863,-1.2851275461551724e-05
1.864,-1.4169960995144704e-05
1.865,-1.3659509775490915e-05
1.866,-1.4319872976295023e-05
1.867,-1.465126352306043e-05
1.868,-1.365412664080376e-05
1.869,-1.442911321183217e-05
1.87,-1.2977056881253657e-05
1.871,-1.569895547889071e-05
1.872,-1.7195956945820254e-05
1.873,-1.4769349581087111e-05
1.874,-1.4620556077778783e-05
1.875,-1.405113051466721e-05
1.876,-1.4262757224864104e-05
1.877,-1.3757250288389244e-05
1.878,-1.3236552299832772e-05
1.879,-1.5102731050278873e-05
1.88,-1.6757972835270883e-05
1.881,-1.5104571254761197e-05
1.882,-1.2644910599758669e-05
1.883,-1.1781443213235855e-05
1.884,-1.2416660556130644e-05
1.885,-1.2653058086760305e-05
1.886,-1.1693094455585593e-05
1.887,-1.0539145907864084e-05
1.888,-1.0093457154900076e-05
1.889,-1.0158090301516925e-05
1.89,-9.73487368565361e-06
1.891,-1.04253526804367e-05
1.892,-1.1030744617429677e-05
1.893,-1.2151900003235345e-05
1.894,-1.3489272115395667e-05
1.895,-1.1642896877012388e-05
1.896,-9.41238462647488e-06
1.897,-1.1296925027218364e-05
1.898,-1.269530591470332e-05
1.899,-1.3705946369631845e-05
1.9,-1.3726943756729665e-05
1.901,-1.1156133898552003e-05
1.902,-9.49116298663244e-06
1.903,-1.0129569291496374e-05
1.904,-1.066887224195138e-05
1.905,-1.0006666024800546e-05
1.906,-1.244071452870722e-05
1.907,-9.269044237393876e-06
1.908,-7.390031580933693e-06
1.909,-9.902481288453379e-06
1.91,-8.205692455095766e-06
1.911,-7.999509339410378e-06
1.912,-8.18435433799394e-06
1.913,-9.061241130567643e-06
1.914,-9.831766634254747e-06
1.915,-1.0998081129742625e-05
1.916,-9.762836699706443e-06
1.917,-7.729114923909045e-06
1.918,-8.000335576438038e-06
1.919,-8.280148838427567e-06
1.92,-8.07231424443708e-06
1.921,-6.780570193940711e-06
1.922,-6.808498355140166e-06
1.923,-7.75938764414335e-06
1.924,-7.336102660521168e-06
1.925,-6.740961487724641e-06
1.926,-8.87562761705453e-06
1.927,-9.041020426374566e-06
1.928,-8.337248145573562e-06
1.929,-9.763566582384704e-06
1.93,-9.018366083184892e-06
1.931,-8.399188288092605e-06
1.932,-7.602773237233808e-06
1.933,-7.42513632861229e-06
1.934,-1.0161673553650895e-05
1.935,-1.060729238188335e-05
1.936,-1.0456564669547031e-05
1.937,-1.2103897065042467e-05
1.938,-8.84371361212866e-06
1.939,-9.670644640427512e-06
1.94,-1.1979715608602183e-05
1.941,-1.266652934886579e-05
1.942,-1.352743516594285e-05
1.943,-1.2559678475542541e-05
1.944,-1.2861525125325005e-05
1.945,-1.0332355215851847e-05
1.946,-8.272722112944552e-06
1.947,-9.684373391704255e-06
1.948,-9.670231644976698e-06
1.949,-8.034334388333974e-06
1.95,-8.581733658140944e-06
1.951,-8.318357284163564e-06
1.952,-8.850835176831212e-06
1.953,-9.58629525481973e-06
1.954,-8.632134805558543e-06
1.955,-8.69577407700837e-06
1.956,-8.584399705479956e-06
1.957,-8.704706159086817e-06
1.958,-8.062643694425814e-06
1.959,-6.5631813681008e-06
1.96,-5.110093406397536e-06
1.961,-4.4057767167033525e-06
1.962,-4.051106533492253e-06
1.963,-4.245336149480111e-06
1.964,-4.786045417308091e-06
1.965,-4.669141255264006e-06
1.966,-5.088911795488348e-06
1.967,-6.138134123869324e-06
1.968,-6.608233830570084e-06
1.969,-7.0894928744550615e-06
1.97,-8.471300619840886e-06
1.971,-9.8424413850467e-06
1.972,-9.991410501182469e-06
1.973,-1.0206749763724066e-05
1.974,-1.0077392309482482e-05
1.975,-8.593006400517532e-06
1.976,-1.1744327368220712e-05
1.977,-1.4423467079043281e-05
1.978,-1.272419073138753e-05
1.979,-1.4942151573333388e-05
1.98,-1.5675075224632087e-05
1.981,-1.3622886664870355e-05
1.982,-1.1487774574378064e-05
1.983,-8.474189538295912e-06
1.984,-6.88877459307484e-06
1.985,-7.440228648909939e-06
1.986,-5.839105397916738e-06
1.987,-4.197552351278964e-06
1.988,-7.128996574551579e-06
1.989,-6.447785446673441e-06
1.99,-6.268792297379436e-06
1.991,-5.206998028325946e-06
1.992,-4.477060752154727e-06
1.993,-6.792886057277972e-06
1.994,-5.66721070146398e-06
1.995,-8.511212343025994e-06
1.996,-7.934157335331621e-06
1.997,-5.743097651421816e-06
1.998,-7.0426266956330895e-06
1.999,-6.134702134394843e-06
2.0,-7.018541985201213e-06
2.001,-8.390598096388797e-06
2.002,-9.544608893273018e-06
2.003,-8.371730926225219e-06
2.004,-8.260746404479868e-06
2.005,-9.298341607970874e-06
2.006,-9.769448909231044e-06
2.007,-1.045764317583741e-05
2.008,-1.204558162296468e-05
2.009,-1.3615474799674816e-05
2.01,-1.1549575366665406e-05
2.011,-1.1830670691568303e-05
2.012,-1.394256507283544e-05
2.013,-1.567053761434761e-05
2.014,-1.4501762406598088e-05
2.015,-1.4025678710011014e-05
2.016,-1.5534300252370785e-05
2.017,-1.5322454504359513e-05
2.018,-1.4887944833101063e-05
2.019,-1.4831630692607407e-05
2.02,-1.4457423424100575e-05
2.021,-1.2872197735180516e-05
2.022,-1.2785621428663707e-05
2.023,-1.1909908383020226e-05
2.024,-8.659502071910534e-06
2.025,-6.350698979759461e-06
2.026,-5.8012230593733174e-06
2.027,-5.529763830490975e-06
2.028,-5.955491789221878e-06
2.029,-5.897565453570253e-06
2.03,-6.07464458843095e-06
2.031,-5.204423926784463e-06
2.032,-3.903201038288873e-06
2.033,-2.38549091166001e-06
2.034,4.3630165419336066e-07
2.035,6.52142568600489e-07
2.036,2.2545546950951956e-06
2.037,2.8387249643354487e-06
2.038,5.025299649979387e-07
2.039,6.46480168911029e-07
2.04,1.2735854865347453e-06
2.041,3.891473042480276e-07
2.042,9.004844490682174e-07
2.043,1.6166025874959633e-06
2.044,1.2478183282951416e-06
2.045,7.053507084062216e-07
2.046,-1.9910624806550038e-07
2.047,-9.538156283886823e-07
2.048,-2.747419988995531e-06
2.049,-2.5693399012631735e-06
2.05,-2.810135388054369e-06
2.051,-4.961818151972764e-06
2.052,-5.018104082484259e-06
2.053,-5.974597454885483e-06
2.054,-7.0289004404236305e-06
2.055,-6.88064396559211e-06
2.056,-8.631438514763968e-06
2.057,-9.58474608433461e-06
2.058,-8.345677086750325e-06
2.059,-9.220718487942776e-06
2.06,-8.61740176342671e-06
2.061,-9.24392130368299e-06
2.062,-1.1308715623110186e-05
2.063,-1.1020025073157708e-05
2.064,-1.2185440685069326e-05
2.065,-1.2911459239650792e-05
2.066,-1.3003059663182598e-05
2.067,-1.3263315377047292e-05
2.068,-1.5393056295456147e-05
2.069,-1.6490592796771732e-05
2.07,-1.935151222881034e-05
2.071,-2.6068556399043187e-05
2.072,-2.653158610949597e-05
2.073,-2.7927636195018814e-05
2.074,-3.1541061790878575e-05
2.075,-3.2953773774113706e-05
2.076,-3.824555857745209e-05
2.077,-4.149447494875507e-05
2.078,-4.19773178035456e-05
2.079,-4.447013716804961e-05
2.08,-4.72487984020833e-05
2.081,-4.838956848165721e-05
2.082,-5.056971215503043e-05
2.083,-5.22680812945199e-05
2.084,-5.276568076673637e-05
2.085,-5.234619463831314e-05
2.086,-4.979645750989913e-05
2.087,-4.95068572008855e-05
2.088,-5.077165684991878e-05
2.089,-4.8989226698048166e-05
2.09,-4.58621783177345e-05
2.091,-4.269739676828474e-05
2.092,-3.8905969016165636e-05
2.093,-3.470300987235117e-05
2.094,-2.990738958186205e-05
2.095,-2.4841369967316133e-05
2.096,-1.9330158596435643e-05
2.097,-1.650139273683075e-05
2.098,-9.584566812045582e-06
2.099,5.895813767951647e-07
2.1,8.089709294888755e-06
2.101,1.548451618774164e-05
2.102,2.254338033869511e-05
2.103,2.9736970310570754e-05
2.104,3.543781426502143e-05
2.105,4.052081276509474e-05
2.106,4.5763682196618974e-05
2.107,4.984731803905424e-05
2.108,5.215606961229349e-05
2.109,5.4177920549533865e-05
2.11,5.610457201811514e-05
2.111,5.643142854627752e-05
2.112,5.8057489128652454e-05
2.113,6.188514899247646e-05
2.114,6.211991992910104e-05
2.115,6.15700793564923e-05
2.116,5.9346260211519525e-05
2.117,5.38609953197035e-05
2.118,5.0128231010531876e-05
2.119,4.696282540758457e-05
2.12,4.398004700791864e-05
2.121,4.029508887249666e-05
2.122,4.0422612991657515e-05
2.123,4.2076338193710654e-05
2.124,4.026868337101519e-05
2.125,4.001047585874816e-05
2.126,4.061073257970341e-05
2.127,3.637651913499075e-05
2.128,3.081288945265185e-05
2.129,2.8622905984896843e-05
2.13,2.6207737851983673e-05
2.131,2.386683184740053e-05
2.132,2.1898148921759425e-05
2.133,1.9598456722169257e-05
2.134,1.6463667041887537e-05
2.135,9.789205683453887e-06
2.136,8.170401297078551e-06
2.137,6.502879251484768e-06
2.138,2.6829465395057055e-06
2.139,3.0795411413265806e-07
2.14,-3.1233761230635524e-06
2.141,-4.6106712291530354e-06
2.142,-7.451683978358784e-06
2.143,-9.942134525542904e-06
2.144,-1.3075622878937613e-05
2.145,-2.0043615759127065e-05
2.146,-2.6335508990969267e-05
2.147,-2.8538764119393553e-05
2.148,-3.15391155367845e-05
2.149,-3.532084213481577e-05
2.15,-3.876709541847129e-05
2.151,-4.336027420919877e-05
2.152,-4.718243457354422e-05
2.153,-5.0515722488622985e-05
2.154,-5.3542816029954455e-05
2.155,-5.7247363561249115e-05
2.156,-5.9514404526999056e-05
2.157,-6.223075999092583e-05
2.158,-6.318538100693275e-05
2.159,-6.376964422206373e-05
2.16,-6.587758574946561e-05
2.161,-6.710606625984678e-05
2.162,-6.86548623605237e-05
2.163,-6.932668159372117e-05
2.164,-6.932710071819726e-05
2.165,-6.926442926665523e-05
2.166,-6.964950262260971e-05
2.167,-6.849541096421474e-05
2.168,-6.831717231406878e-05
2.169,-6.923135955546299e-05
2.17,-6.945569257824e-05
2.171,-6.910860766320189e-05
2.172,-6.880881677631668e-05
2.173,-6.647486960869575e-05
2.174,-6.352473096406919e-05
2.175,-6.337538547357824e-05
2.176,-6.164248063165063e-05
2.177,-5.9740017831389584e-05
2.178,-5.5880099478280045e-05
2.179,-5.187273843067579e-05
2.18,-4.9225734014840774e-05
2.181,-4.624461675641816e-05
2.182,-4.5432661826870205e-05
2.183,-4.349096909087669e-05
2.184,-4.121860562533036e-05
2.185,-3.681280472496301e-05
2.186,-3.156921377043774e-05
2.187,-3.0482181960981893e-05
2.188,-2.984507784520555e-05
2.189,-2.6450625850227663e-05
2.19,-2.4291250629038355e-05
2.191,-2.5259418025966486e-05
2.192,-2.2847961795306914e-05
2.193,-2.0250385882317362e-05
2.194,-1.9561133061929857e-05
2.195,-1.6875811991960476e-05
2.196,-1.5691376229294073e-05
2.197,-1.3606250427644967e-05
2.198,-1.1320400727230793e-05
2.199,-1.1635348200168202e-05
2.2,-9.254126069674727e-06
2.201,-7.481183216278816e-06
2.202,-6.822238163154859e-06
2.203,-6.984089243132276e-06
2.204,-8.174387946003975e-06
2.205,-5.4013834884359246e-06
2.206,-3.1736474109763624e-06
2.207,-2.699787468080444e-06
2.208,-2.5881602286737056e-06
2.209,-3.2465916479361724e-06
2.21,-3.5821144172358907e-06
2.211,-4.600730169629659e-06
2.212,-4.6072036429730325e-06
2.213,-2.804894718920089e-06
2.214,-3.3956329076168193e-06
2.215,-4.8796373829765995e-06
2.216,-4.955484143246356e-06
2.217,-4.320120328409281e-06
2.218,-4.0689242214296285e-06
2.219,-5.9958080436002e-06
2.22,-6.7933593704412295e-06
2.221,-6.453015883330462e-06
2.222,-6.7652672661839416e-06
2.223,-7.019877381160432e-06
2.224,-9.906119429181535e-06
2.225,-1.341301662783419e-05
2.226,-1.3029581019795891e-05
2.227,-1.2345043349417312e-05
2.228,-1.3749067495441953e-05
2.229,-1.4431943698573744e-05
2.23,-1.498475574192297e-05
2.231,-1.6699518293375425e-05
2.232,-1.846928176107645e-05
2.233,-1.768820320377143e-05
2.234,-2.005158303337278e-05
2.235,-2.3155868405462223e-05
2.236,-2.289862527457298e-05
2.237,-2.227848205894496e-05
2.238,-2.2295048682969357e-05
2.239,-2.274881541975858e-05
2.24,-2.344103642304214e-05
2.241,-2.2573603106095686e-05
2.242,-2.1848912592429283e-05
2.243,-2.2469736332794076e-05
2.244,-2.1439093667231942e-05
2.245,-2.526013462752777e-05
2.246,-2.5536035648491213e-05
2.247,-2.2669911114744607e-05
2.248,-2.2864742845503002e-05
2.249,-2.132332874790161e-05
2.25,-2.2648250985426338e-05
2.251,-2.354186314719939e-05
2.252,-2.2906295099792242e-05
2.253,-2.344347348641495e-05
2.254,-2.4455155235193307e-05
2.255,-2.414297097016402e-05
2.256,-2.3408474901172715e-05
2.257,-2.2753197611321563e-05
2.258,-2.117869816569449e-05
2.259,-2.1386612128924817e-05
2.26,-2.117869239157572e-05
2.261,-2.0356840150257134e-05
2.262,-1.992312394274753e-05
2.263,-1.8679785281743646e-05
2.264,-1.7029230130660255e-05
2.265,-1.7374006191576535e-05
2.266,-1.721676669762202e-05
2.267,-1.7260222088948236e-05
2.268,-1.8907081573776485e-05
2.269,-1.8959987107543825e-05
2.27,-1.9721442741474965e-05
2.271,-1.7693742579338167e-05
2.272,-1.5878900725499686e-05
2.273,-1.5878586602389106e-05
2.274,-1.5094068860991245e-05
2.275,-1.5226170809992404e-05
2.276,-1.3075239859619853e-05
2.277,-1.2541132932323346e-05
2.278,-1.2123219156268983e-05
2.279,-1.0720400454998562e-05
2.28,-1.2231149906214061e-05
2.281,-1.4553566994806232e-05
2.282,-1.3885448160759119e-05
2.283,-1.1224370371467407e-05
2.284,-1.1467784858388827e-05
2.285,-1.0413117674823841e-05
2.286,-9.357873375897757e-06
2.287,-1.1799737909501132e-05
2.288,-1.3036676748423716e-05
2.289,-1.2367024393552083e-05
2.29,-1.0289561633901393e-05
2.291,-8.603577353311165e-06
2.292,-8.708912211799887e-06
2.293,-1.0805982182353997e-05
2.294,-1.369578066711264e-05
2.295,-1.1679858722475966e-05
2.296,-9.56028375983839e-06
2.297,-1.0239577925069718e-05
2.298,-9.720638162848893e-06
2.299,-1.100664070972778e-05
2.3,-9.90093340277209e-06
2.301,-6.906919712520837e-06
2.302,-4.827938787934643e-06
2.303,-5.5671460203358495e-06
2.304,-6.327398682402716e-06
2.305,-5.711151072817174e-06
2.306,-4.520363299582122e-06
2.307,-3.2564273743539745e-06
2.308,-6.3201136817721135e-06
2.309,-7.01154015293356e-06
2.31,-6.930165637180849e-06
2.311,-6.9748080617053235e-06
2.312,-6.343687027619751e-06
2.313,-6.93448954941744e-06
2.314,-5.944456737894222e-06
2.315,-5.970488389574717e-06
2.316,-6.909261711184026e-06
2.317,-6.857359805010152e-06
2.318,-5.511405094798373e-06
2.319,-4.468192601218796e-06
2.32,-5.32481789371977e-06
2.321,-5.678794657587335e-06
2.322,-4.128157119939962e-06
2.323,-3.9715430676348745e-06
2.324,-3.9082538480866275e-06
2.325,-4.938288548745204e-06
2.326,-4.562350474641578e-06
2.327,-1.981825053394361e-06
2.328,-2.898729357156256e-06
2.329,-4.21563450261113e-06
2.33,-4.735563233818119e-06
2.331,-4.061865969463183e-06
2.332,-3.1980794688935016e-06
2.333,-3.3477730064901056e-06
2.334,-3.914387512404681e-06
2.335,-3.9010735161011415e-06
2.336,-3.910533900807764e-06
2.337,-5.244877432537289e-06
2.338,-4.505488765161686e-06
2.339,-3.4929201494266414e-06
2.34,-4.006809402799851e-06
2.341,-3.3458278500384204e-06
2.342,-2.7076609493305356e-06
2.343,-4.189023209496412e-06
2.344,-6.0857078182252475e-06
2.345,-4.292670181070896e-06
2.346,-2.00414335904498e-06
2.347,-9.137822324437536e-07
2.348,-2.1148321519644126e-06
2.349,-3.1003169042691016e-06
2.35,-2.4632400526847503e-06
2.351,-6.096793143834285e-06
2.352,-7.394563920141232e-06
2.353,-6.550737561244527e-06
2.354,-7.460284101171885e-06
2.355,-6.919125530959476e-06
2.356,-4.024276688125061e-06
2.357,-2.4739548366883024e-06
2.358,-6.067653828395066e-06
2.359,-8.506179874839512e-06
2.36,-6.691647213082615e-06
2.361,-4.427433271642958e-06
2.362,-3.218094294074693e-06
2.363,-1.7692437072136365e-06
2.364,-1.3873967844315493e-06
2.365,-2.7978630679790783e-07
2.366,7.458450735817413e-07
2.367,8.814692490459193e-07
2.368,1.5190067326903145e-06
2.369,1.750562916050872e-06
2.37,1.4686589182980964e-06
2.371,1.3664495826679473e-06
2.372,1.7379215734323565e-06
2.373,8.780651635261122e-07
2.374,8.830141578840572e-07
2.375,1.8501494418573712e-06
2.376,1.378162842380673e-06
2.377,3.9670793010415875e-06
2.378,5.518236738059922e-06
2.379,4.134224387175094e-06
2.38,3.518781755555732e-06
2.381,3.576661662974941e-06
2.382,4.313461996088297e-06
2.383,5.135431836278416e-06
2.384,5.9492584483054485e-06
2.385,4.36184222379831e-06
2.386,3.680067038064441e-06
2.387,4.210573588867124e-06
2.388,4.1595431386686225e-06
2.389,3.93249868327993e-06
2.39,3.0341299345515064e-06
2.391,1.0681476555508746e-06
2.392,1.3371718538650838e-06
2.393,2.942657158801737e-06
2.394,1.8848574229178338e-06
2.395,3.162830242571474e-06
2.396,5.374480733091281e-06
2.397,6.516642568963946e-06
2.398,6.485193054017534e-06
2.399,6.175197863753672e-06
2.4,6.4810801400577135e-06
2.401,8.596807849912966e-06
2.402,9.516092769893565e-06
2.403,4.732594144670244e-06
2.404,4.240119999641245e-06
2.405,6.532819265463177e-06
2.406,7.705358287369821e-06
2.407,7.953075928021762e-06
2.408,5.07211230480594e-06
2.409,5.6595071997578854e-06
2.41,6.813265305723277e-06
2.411,5.23238668481088e-06
2.412,4.716862070622969e-06
2.413,5.467633898976736e-06
2.414,7.686525158076885e-06
2.415,7.07613926561638e-06
2.416,5.939735167886454e-06
2.417,5.181082680426594e-06
2.418,4.004303722958736e-06
2.419,4.51370552236667e-06
2.42,3.0136120531896225e-06
2.421,2.608199950640871e-06
2.422,4.401344870077592e-06
2.423,3.896483790869648e-06
2.424,3.1964980912065343e-06
2.425,3.7036213799626434e-06
2.426,4.219375094692584e-06
2.427,5.244533798260866e-06
2.428,3.879120970984454e-06
2.429,2.8224349427910023e-06
2.43,3.873103483362348e-06
2.431,2.6291645088603053e-06
2.432,1.5881694101542639e-06
2.433,8.473046938405553e-07
2.434,-7.964730173002782e-07
2.435,7.537059690695285e-07
2.436,1.3947696681733568e-06
2.437,4.2384628623779037e-07
2.438,1.5383971997782103e-06
2.439,6.363359293315441e-07
2.44,9.16128567211251e-07
2.441,1.976871861672554e-06
2.442,1.8183460402825731e-06
2.443,6.410404394406517e-07
2.444,3.461510573826092e-07
2.445,2.2355502248899594e-06
2.446,2.1172965081369887e-07
2.447,-1.0222808913233093e-06
2.448,-2.8630160514740113e-06
2.449,-4.606694589029711e-06
2.45,-2.549351641088732e-06
2.451,-2.7869784962717333e-06
2.452,-4.415664529788775e-06
2.453,-5.431735890711366e-06
2.454,-5.631885671883538e-06
2.455,-3.313290630418761e-06
2.456,-3.4737100487047063e-06
2.457,-6.11156301186451e-06
2.458,-7.025981201246327e-06
2.459,-7.216835233249769e-06
2.46,-6.984733573329247e-06
2.461,-7.230994088525156e-06
2.462,-7.557589329476342e-06
2.463,-7.167067616054268e-06
2.464,-5.762452902848362e-06
2.465,-6.347127188227395e-06
2.466,-6.724699874529542e-06
2.467,-7.898868963525047e-06
2.468,-8.673279263431027e-06
2.469,-7.85138288120193e-06
2.47,-8.436307173667246e-06
2.471,-7.330735037853868e-06
2.472,-7.836801946243333e-06
2.473,-9.356013495259868e-06
2.474,-9.389186459480876e-06
2.475,-9.136415459520684e-06
2.476,-8.997066391836958e-06
2.477,-9.169796770115944e-06
2.478,-8.552602127994277e-06
2.479,-8.242886669165175e-06
2.48,-6.937555459381938e-06
2.481,-8.233124668653975e-06
2.482,-1.0325845720080237e-05
2.483,-1.0211838708174659e-05
2.484,-1.0587230132050432e-05
2.485,-9.448289858596596e-06
2.486,-8.891562291854642e-06
2.487,-1.1213986974021438e-05
2.488,-1.4313004270617839e-05
2.489,-1.1986642380456262e-05
2.49,-9.633582637181618e-06
2.491,-1.2453200905295649e-05
2.492,-1.2345583787588837e-05
2.493,-1.2211519317860003e-05
2.494,-1.0452462776258482e-05
2.495,-9.17047919798092e-06
2.496,-1.0568165014095134e-05
2.497,-1.0048552033253766e-05
2.498,-1.0914997616124913e-05
2.499,-1.2171065386550955e-05
2.5,-9.520401146594294e-06
2.501,-8.566608805076092e-06
2.502,-9.013131086196978e-06
2.503,-9.263139558673087e-06
2.504,-9.419438125814873e-06
2.505,-8.784383559028223e-06
2.506,-6.659825963224051e-06
2.507,-5.947071259634422e-06
2.508,-8.546866890720015e-06
2.509,-8.359411027308286e-06
2.51,-9.184384625547204e-06
2.511,-8.721004776683008e-06
2.512,-7.66809695095474e-06
2.513,-8.624182990501155e-06
2.514,-7.987581083881906e-06
2.515,-7.056513480659407e-06
2.516,-6.929217396827552e-06
2.517,-7.90405443269353e-06
2.518,-7.479613879279662e-06
2.519,-6.754805525540693e-06
2.52,-5.828937987858448e-06
2.521,-4.601779149920479e-06
2.522,-4.773596003701813e-06
2.523,-4.9451719941070475e-06
2.524,-5.417800859918784e-06
2.525,-5.893256898010161e-06
2.526,-5.673742520512495e-06
2.527,-4.861814889568e-06
2.528,-6.1602942661787395e-06
2.529,-6.372157465518229e-06
2.53,-3.900420441471012e-06
2.531,-5.24801450334666e-06
2.532,-7.717660978517343e-06
2.533,-7.711749263340158e-06
2.534,-6.532223145170149e-06
2.535,-5.380480031654977e-06
2.536,-5.457287297987103e-06
2.537,-5.162719373304237e-06
2.538,-6.2961184551217325e-06
2.539,-7.2560808921450785e-06
2.54,-4.9404703421027686e-06
2.541,-5.246457826723734e-06
2.542,-4.670587807056634e-06
2.543,-4.408868426073315e-06
2.544,-7.356883148289277e-06
2.545,-7.409920202300008e-06
2.546,-4.963115532651962e-06
2.547,-4.811604418842851e-06
2.548,-5.950676542480342e-06
2.549,-7.5759290934625835e-06
2.55,-8.983412510388643e-06
2.551,-7.769763650047775e-06
2.552,-9.032321569389026e-06
2.553,-8.66922166752606e-06
2.554,-9.1794646553158e-06
2.555,-9.962957670372444e-06
2.556,-7.42052580576121e-06
2.557,-6.753893337096398e-06
2.558,-6.765634978961464e-06
2.559,-8.159098539992207e-06
2.56,-7.338301339417588e-06
2.561,-6.8078036607816975e-06
2.562,-7.472563318361458e-06
2.563,-7.037776069965915e-06
2.564,-6.908707103037775e-06
2.565,-7.190519131963201e-06
2.566,-7.488102762538573e-06
2.567,-7.205914700942773e-06
2.568,-7.947829112720168e-06
2.569,-8.317006982545356e-06
2.57,-8.315787704812089e-06
2.571,-8.645606371158816e-06
2.572,-9.106939341742931e-06
2.573,-9.399279724226584e-06
2.574,-9.521143372669896e-06
2.575,-1.0670104993995136e-05
2.576,-1.0242862948734647e-05
2.577,-1.0335330390608611e-05
2.578,-1.0042749538882809e-05
2.579,-1.0059825147605716e-05
2.58,-1.1780872651252821e-05
2.581,-1.1299976046034338e-05
2.582,-1.2111150323013853e-05
2.583,-1.310850320952382e-05
2.584,-1.2486391098691597e-05
2.585,-1.2539564346082577e-05
2.586,-1.0563297574079048e-05
2.587,-9.453501229430713e-06
2.588,-1.2106811363242613e-05
2.589,-1.4620655417283962e-05
2.59,-1.5193292674761183e-05
2.591,-1.4923828934723803e-05
2.592,-1.3912205863714203e-05
2.593,-1.3459166333570494e-05
2.594,-1.2866197839882033e-05
2.595,-1.4935456784051768e-05
2.596,-1.8069676969928438e-05
2.597,-1.9572066095187762e-05
2.598,-1.544619429529482e-05
2.599,-1.0395878917198854e-05
2.6,-1.2225069660287788e-05
2.601,-1.2637738029057111e-05
2.602,-1.193777470671902e-05
2.603,-1.4028897998161036e-05
2.604,-1.561457592537901e-05
2.605,-1.0597963913539651e-05
2.606,-5.981859308588994e-06
2.607,-8.068673246744916e-06
2.608,-9.060419681578667e-06
2.609,-9.158720694163952e-06
2.61,-9.764826592479453e-06
2.611,-9.979648771439519e-06
2.612,-1.0103802874271384e-05
2.613,-9.937659484507419e-06
2.614,-8.981399395499606e-06
2.615,-8.035070455476507e-06
2.616,-8.398643069515171e-06
2.617,-9.172061648671844e-06
2.618,-8.555289619028433e-06
2.619,-8.448346023088682e-06
2.62,-8.151332242449471e-06
2.621,-7.464447920647609e-06
2.622,-7.187995743229145e-06
2.623,-7.122375312199434e-06
2.624,-7.168066908087732e-06
2.625,-7.625606440219474e-06
2.626,-7.495553322094168e-06
2.627,-7.178453354972753e-06
2.628,-7.474798943925626e-06
2.629,-7.4849890964341295e-06
2.63,-7.509291659068313e-06
2.631,-7.947810133026954e-06
2.632,-6.400457180003649e-06
2.633,-6.866936596617535e-06
2.634,-1.0046735113841905e-05
2.635,-8.439124886795527e-06
2.636,-7.343177002412146e-06
2.637,-8.657785772561998e-06
2.638,-9.181703024000693e-06
2.639,-8.713581069928803e-06
2.64,-8.352022575729117e-06
2.641,-8.295635136199694e-06
2.642,-7.043088082720778e-06
2.643,-6.493168851628542e-06
2.644,-6.8448361801843275e-06
2.645,-7.097267459198682e-06
2.646,-6.64989776127167e-06
2.647,-6.902448374764678e-06
2.648,-5.854943094545627e-06
2.649,-5.507711034700134e-06
2.65,-7.66137531476175e-06
2.651,-7.516827604950286e-06
2.652,-7.075189170146866e-06
2.653,-7.937759698090076e-06
2.654,-7.705955805456077e-06
2.655,-7.0812416579185495e-06
2.656,-8.56505459096041e-06
2.657,-9.358728954424086e-06
2.658,-8.86342160719143e-06
2.659,-8.580042545863843e-06
2.66,-6.809194055666141e-06
2.661,-7.251121522200974e-06
2.662,-7.405678644865304e-06
2.663,-6.572309258946578e-06
2.664,-7.050047322031444e-06
2.665,-8.43753587533247e-06
2.666,-9.133064980526299e-06
2.667,-8.734627790010174e-06
2.668,-9.139993067852526e-06
2.669,-9.046791675920508e-06
2.67,-9.552613810107621e-06
2.671,-1.1155113148804058e-05
2.672,-1.1252113590008529e-05
2.673,-1.0041713930428072e-05
2.674,-1.0922385699397904e-05
2.675,-1.1293059415547896e-05
2.676,-1.0353194790392421e-05
2.677,-1.0602830857993501e-05
2.678,-1.0142612652973723e-05
2.679,-9.373791871892826e-06
2.68,-8.798199909319836e-06
2.681,-8.61819272710307e-06
2.682,-8.336568155016264e-06
2.683,-6.4564573905096264e-06
2.684,-6.681193619330021e-06
2.685,-9.714161770849707e-06
2.686,-8.658634406317768e-06
2.687,-6.317599571707565e-06
2.688,-7.993587090426966e-06
2.689,-1.028850019186427e-05
2.69,-1.0703459543911595e-05
2.691,-1.0538666664209634e-05
2.692,-8.8932933183941e-06
2.693,-8.265402876743434e-06
2.694,-9.851908706336494e-06
2.695,-9.448573547354992e-06
2.696,-9.15005249239473e-06
2.697,-1.0949980698216394e-05
2.698,-1.1541105359363288e-05
2.699,-1.1215459817467294e-05
2.7,-9.964576027828048e-06
2.701,-9.579730016915422e-06
2.702,-1.1052213501496717e-05
2.703,-1.0873623560341456e-05
2.704,-1.1636161206417234e-05
2.705,-1.2432928947883244e-05
2.706,-1.2458216988022295e-05
2.707,-1.3007767625190332e-05
2.708,-1.3079007689901124e-05
2.709,-1.247123950072002e-05
2.71,-9.885781824048014e-06
2.711,-1.0626053662374625e-05
2.712,-1.0597595335727507e-05
2.713,-8.708023214667988e-06
2.714,-8.966916552681972e-06
2.715,-6.785637084972695e-06
2.716,-6.677084336717764e-06
2.717,-6.05539183993091e-06
2.718,-4.035571615761466e-06
2.719,-2.4331162611665793e-06
2.72,-2.0635697121345053e-06
2.721,-2.7420791733635488e-06
2.722,-2.4829417489560302e-06
2.723,-2.3991599340519087e-06
2.724,-2.6020203004110123e-06
2.725,-3.4007094114412053e-06
2.726,-3.80198023142066e-06
2.727,-4.009881063145515e-06
2.728,-4.7255573874404264e-06
2.729,-4.64713493174827e-06
2.73,-2.9696899223638775e-06
2.731,-6.485309847222643e-06
2.732,-1.1383245255157531e-05
2.733,-1.1850150232509604e-05
2.734,-1.1570406322977329e-05
2.735,-1.1426521887303088e-05
2.736,-1.1799596329900365e-05
2.737,-1.316983633905484e-05
2.738,-1.3517109377138443e-05
2.739,-1.2421518187727831e-05
2.74,-1.3263979114504697e-05
2.741,-1.3826786593582513e-05
2.742,-1.4294146310380243e-05
2.743,-1.4352660209861352e-05
2.744,-1.4491747801472372e-05
2.745,-1.5903989975287195e-05
2.746,-1.588538379354824e-05
2.747,-1.5635499375296457e-05
2.748,-1.515753296983767e-05
2.749,-1.5158253524112229e-05
2.75,-1.3847843387263512e-05
2.751,-1.3839637154745372e-05
2.752,-1.414976592389668e-05
2.753,-1.109671730427833e-05
2.754,-1.270082429563803e-05
2.755,-1.2683698519305278e-05
2.756,-9.867625182331433e-06
2.757,-9.374938499963787e-06
2.758,-8.627397050701285e-06
2.759,-7.945578658188121e-06
2.76,-6.84831387513154e-06
2.761,-5.652175997045395e-06
2.762,-4.7710437897510676e-06
2.763,-4.215750826268014e-06
2.764,-4.193832566745703e-06
2.765,-4.709379166689199e-06
2.766,-4.062998564920401e-06
2.767,-3.9518907950081866e-06
2.768,-5.070030800654207e-06
2.769,-5.908453438053324e-06
2.77,-6.255630936777695e-06
2.771,-6.697929980341511e-06
2.772,-7.820132864323892e-06
2.773,-9.606004987112032e-06
2.774,-9.03888930339456e-06
2.775,-9.702307382254749e-06
2.776,-1.1880546398056647e-05
2.777,-1.2159211759031847e-05
2.778,-1.2125726138359006e-05
2.779,-1.146975738550623e-05
2.78,-1.2583560109536762e-05
2.781,-1.3662218568349511e-05
2.782,-1.4903781777611525e-05
2.783,-1.6209285364323622e-05
2.784,-1.5682658514548466e-05
2.785,-1.52305182768416e-05
2.786,-1.6261857352511274e-05
2.787,-1.768763520161694e-05
2.788,-1.7820285694997206e-05
2.789,-1.8073157531972596e-05
2.79,-1.805990611795127e-05
2.791,-1.8393857469631084e-05
2.792,-1.9387365920858185e-05
2.793,-2.1051187894207865e-05
2.794,-2.1993893760085358e-05
2.795,-2.3221338828904716e-05
2.796,-2.5336212839266247e-05
2.797,-2.5437684966112557e-05
2.798,-2.6321158449682998e-05
2.799,-2.8578145530491036e-05
2.8,-3.0196269576074486e-05
2.801,-3.115939722371404e-05
2.802,-3.4247899170773414e-05
2.803,-4.013903405685981e-05
2.804,-4.350744583624323e-05
2.805,-4.512576126752495e-05
2.806,-4.4765270774661925e-05
2.807,-4.519667307090285e-05
2.808,-5.0190861680526904e-05
2.809,-5.42197299186646e-05
2.81,-5.465697005113011e-05
2.811,-5.4778842284530584e-05
2.812,-5.566488993752707e-05
2.813,-5.6498578597519804e-05
2.814,-5.516783922926009e-05
2.815,-5.19654980059191e-05
2.816,-5.2089578991034725e-05
2.817,-4.864346960552424e-05
2.818,-4.463594294700302e-05
2.819,-3.968103535773761e-05
2.82,-3.209778202504245e-05
2.821,-2.930981770427509e-05
2.822,-2.5244853742912877e-05
2.823,-1.913404632474394e-05
2.824,-1.391127412753763e-05
2.825,-9.412346292410273e-06
2.826,-1.774163653704481e-06
2.827,5.96614248899104e-06
2.828,1.2472069200348053e-05
2.829,2.0708573683224913e-05
2.83,2.8142854303967282e-05
2.831,3.40450588713003e-05
2.832,3.978890054049401e-05
2.833,4.675216467973804e-05
2.834,5.0517093499521586e-05
2.835,5.257063909555835e-05
2.836,5.4604579666916634e-05
2.837,5.691549791130997e-05
2.838,5.830462483343182e-05
2.839,5.7177556295304524e-05
2.84,5.8043853460827916e-05
2.841,5.7416541720619135e-05
2.842,5.621152562181593e-05
2.843,5.714693968151501e-05
2.844,5.194245666223647e-05
2.845,4.6218575885207194e-05
2.846,4.479591442736515e-05
2.847,4.07945235895161e-05
2.848,3.713325185825917e-05
2.849,3.592917375797966e-05
2.85,3.409710156716116e-05
2.851,3.2549193939868725e-05
2.852,3.2094672128556955e-05
2.853,3.0839650860666145e-05
2.854,2.9687087099578196e-05
2.855,2.6736846045641768e-05
2.856,2.378587993069174e-05
2.857,2.312851155154192e-05
2.858,2.2756811188358005e-05
2.859,2.106105266529904e-05
2.86,1.8530231921441586e-05
2.861,1.645262964057212e-05
2.862,1.3316398290352111e-05
2.863,1.2010153375180871e-05
2.864,9.023548821784644e-06
2.865,3.6478171795145456e-06
2.866,-7.237433049854442e-07
2.867,-2.1953507397451085e-06
2.868,-1.2684043366768512e-06
2.869,-5.141242592748294e-06
2.87,-1.0009002493999328e-05
2.871,-1.4863583987622276e-05
2.872,-1.9393720530963364e-05
2.873,-2.1185153111643703e-05
2.874,-2.7420901850007974e-05
2.875,-3.36816262477533e-05
2.876,-3.7346062429520976e-05
2.877,-4.2091523419821585e-05
2.878,-4.5794446673499114e-05
2.879,-4.963097178485985e-05
2.88,-5.327753057128257e-05
2.881,-5.631143157537111e-05
2.882,-5.931142145025672e-05
2.883,-6.365820666172925e-05
2.884,-6.723492041729712e-05
2.885,-6.752752165912728e-05
2.886,-6.952511526462419e-05
2.887,-7.212018520370196e-05
2.888,-7.390873521602704e-05
2.889,-7.589033450011866e-05
2.89,-7.72680688528798e-05
2.891,-7.794840056802517e-05
2.892,-7.864094310465089e-05
2.893,-7.875815898995078e-05
2.894,-7.821499154993447e-05
2.895,-7.772844280823131e-05
2.896,-7.871711120889416e-05
2.897,-8.03007036729189e-05
2.898,-7.90995368741916e-05
2.899,-7.693404251898737e-05
2.9,-7.202429084979869e-05
2.901,-6.948954559969177e-05
2.902,-6.98478622414249e-05
2.903,-6.871573966157913e-05
2.904,-6.770783340870483e-05
2.905,-6.233673648771442e-05
2.906,-5.70128313765871e-05
2.907,-5.34442146037768e-05
2.908,-5.0736692922497386e-05
2.909,-5.009384792480569e-05
2.91,-4.541716392179093e-05
2.911,-4.250621213595951e-05
2.912,-4.0958882758119075e-05
2.913,-3.837165525266122e-05
2.914,-3.583989647899012e-05
2.915,-3.295817574720602e-05
2.916,-3.2520585844600195e-05
2.917,-2.9821059345279922e-05
2.918,-2.65536701259756e-05
2.919,-2.6212910924012e-05
2.92,-2.4393938946819813e-05
2.921,-2.059278292725253e-05
2.922,-1.8406506561096526e-05
2.923,-1.573332490499616e-05
2.924,-1.4972671995897611e-05
2.925,-1.4625219619276893e-05
2.926,-1.299284874798957e-05
2.927,-1.3878576646346414e-05
2.928,-1.2986443941025975e-05
2.929,-1.1521367065251813e-05
2.93,-1.0588962357382629e-05
2.931,-9.79534872093147e-06
2.932,-1.0246936120739682e-05
2.933,-9.550207299657837e-06
2.934,-9.91149996069392e-06
2.935,-9.236796288525461e-06
2.936,-8.73152610618499e-06
2.937,-7.100389208354427e-06
2.938,-5.347201517495536e-06
2.939,-6.8747687116469505e-06
2.94,-7.084789913436965e-06
2.941,-6.577792949068714e-06
2.942,-6.25310162270607e-06
2.943,-6.908834441991708e-06
2.944,-7.841933306523738e-06
2.945,-9.648219860131174e-06
2.946,-9.722476531039912e-06
2.947,-9.158548756498185e-06
2.948,-1.2649464518540422e-05
2.949,-1.3387567107145412e-05
2.95,-1.306465697163634e-05
2.951,-1.4072138610535645e-05
2.952,-1.560116866893283e-05
2.953,-1.7742801741287896e-05
2.954,-1.7688130793880725e-05
2.955,-1.7728419600207655e-05
2.956,-1.9855225099024234e-05
2.957,-2.0060508113205758e-05
2.958,-2.1236731384253072e-05
2.959,-2.2576944360542103e-05
2.96,-2.0474854608893168e-05
2.961,-1.9824886084145895e-05
2.962,-1.912222477990059e-05
2.963,-2.046285248973768e-05
2.964,-2.2343569531001342e-05
2.965,-2.2462007326049373e-05
2.966,-2.3016631706276858e-05
2.967,-2.3506737713347134e-05
2.968,-2.383243653394723e-05
2.969,-2.4394635035161013e-05
2.97,-2.5095008184571787e-05
2.971,-2.553596446010219e-05
2.972,-2.552060419637517e-05
2.973,-2.5852670692513438e-05
2.974,-2.6436493833946384e-05
2.975,-2.5176925968113286e-05
2.976,-2.5579269827543196e-05
2.977,-2.5949198416339814e-05
2.978,-2.4792666966182752e-05
2.979,-2.4515817320055468e-05
2.98,-2.3524875406606332e-05
2.981,-2.2226042812409207e-05
2.982,-2.382538382751492e-05
2.983,-2.432870971341451e-05
2.984,-2.2241462302243866e-05
2.985,-2.39685993615745e-05
2.986,-2.511448443063761e-05
2.987,-2.4782784032830057e-05
2.988,-2.427637527955754e-05
2.989,-2.429726688863597e-05
2.99,-2.454653653709158e-05
2.991,-2.442428724808835e-05
2.992,-2.4829625174391875e-05
2.993,-2.476066069070237e-05
2.994,-2.4214534153729697e-05
2.995,-2.4887467046151347e-05
2.996,-2.6374838507028915e-05
2.997,-2.507128648905192e-05
2.998,-2.3870831997313712e-05
2.999,-2.346702408249135e-05
3.0,-2.3453102511692708e-05
3.001,-2.3622174351275488e-05
3.002,-2.3267400094999143e-05
3.003,-2.3582184483163394e-05
3.004,-2.526036680596372e-05
3.005,-2.569640528510484e-05
3.006,-2.0785550094814242e-05
3.007,-2.1823999724323484e-05
3.008,-2.5909035700218805e-05
3.009,-2.4539131174217633e-05
3.01,-2.4714029529149214e-05
3.011,-2.463478994652746e-05
3.012,-2.480379779095005e-05
3.013,-2.602473867268788e-05
3.014,-2.1902536119345747e-05
3.015,-1.8743253886548954e-05
3.016,-2.1453965030620433e-05
3.017,-2.1142590916965637e-05
3.018,-1.841771431087248e-05
3.019,-1.6488371559104477e-05
3.02,-1.4463829590602418e-05
3.021,-1.40533540166627e-05
3.022,-1.3565974974200146e-05
3.023,-1.2710257515232357e-05
3.024,-1.2094083293266288e-05
3.025,-9.624450031539542e-06
3.026,-1.1107294784909914e-05
3.027,-1.3947346339429074e-05
3.028,-1.1548011250756528e-05
3.029,-1.051129703007152e-05
3.03,-1.1537774874754156e-05
3.031,-1.1426583145779678e-05
3.032,-1.0775471552514429e-05
3.033,-1.0580884758231326e-05
3.034,-1.083808290645184e-05
3.035,-1.054129542854472e-05
3.036,-1.1683903464022179e-05
3.037,-1.1258645340321893e-05
3.038,-1.0657838847569794e-05
3.039,-1.0773613529269052e-05
3.04,-1.059814590901837e-05
3.041,-1.0123890496174452e-05
3.042,-9.343799562444167e-06
3.043,-1.0151525051871286e-05
3.044,-1.0741596566453471e-05
3.045,-1.0609570139687834e-05
3.046,-1.0252143445480086e-05
3.047,-1.0767234159468474e-05
3.048,-1.1054019358978748e-05
3.049,-1.0212935078451847e-05
3.05,-1.0145636389306968e-05
3.051,-9.654919606321427e-06
3.052,-1.0044609397047604e-05
3.053,-1.101941464900506e-05
3.054,-1.058475789722711e-05
3.055,-9.346583902538537e-06
3.056,-8.311153574494339e-06
3.057,-6.784829834233575e-06
3.058,-7.37386220039475e-06
3.059,-8.384176851587546e-06
3.06,-6.8211786747771844e-06
3.061,-5.589571360375492e-06
3.062,-5.293200968499676e-06
3.063,-5.034927589398178e-06
3.064,-5.016528782240192e-06
3.065,-5.93863743229708e-06
3.066,-5.700715552038389e-06
3.067,-5.801064403714001e-06
3.068,-6.83687017709355e-06
3.069,-5.504283353027956e-06
3.07,-6.398528856364209e-06
3.071,-6.414043182449603e-06
3.072,-6.0446338979476284e-06
3.073,-8.783656291997993e-06
3.074,-9.024201505343294e-06
3.075,-9.059290204294627e-06
3.076,-1.1882065798341148e-05
3.077,-9.58598132343969e-06
3.078,-6.0649744199147685e-06
3.079,-8.613625310944306e-06
3.08,-6.727293315976116e-06
3.081,-8.202228189706768e-06
3.082,-1.043565343434491e-05
3.083,-5.825819660941477e-06
3.084,-5.172027043096733e-06
3.085,-7.674616881275579e-06
3.086,-8.734933246712417e-06
3.087,-7.555256570462732e-06
3.088,-5.7387118580802075e-06
3.089,-5.289154919577685e-06
3.09,-5.611040587788401e-06
3.091,-6.309277340680323e-06
3.092,-6.28907303435885e-06
3.093,-6.855776588466775e-06
3.094,-7.114720444796941e-06
3.095,-5.071068448647217e-06
3.096,-4.0296734910483785e-06
3.097,-2.894948813065605e-06
3.098,-1.3707563291833356e-06
3.099,-5.603146965454165e-07
3.1,-6.612916388407664e-08
3.101,-3.8994450294366075e-07
3.102,-8.327215810844655e-07
3.103,-2.19463740104974e-06
3.104,-2.075107735796837e-06
3.105,-1.7283084398312666e-07
3.106,-8.585018359364843e-08
3.107,-1.1116335625014503e-06
3.108,-3.6471657870172787e-06
3.109,-3.989051600370898e-06
3.11,-2.3362554622356204e-07
3.111,-8.770653474270362e-07
3.112,-2.2155054532154564e-06
3.113,-8.451475712714013e-07
3.114,1.376347459886046e-07
3.115,-6.637999378310028e-07
3.116,-1.646446224820819e-06
3.117,9.227536780732071e-08
3.118,2.544595017359958e-07
3.119,-8.583282082612665e-07
3.12,-1.1450803719650322e-06
3.121,9.46379669313907e-08
3.122,2.6606895965011146e-06
3.123,2.152379016608995e-06
3.124,1.868478760108447e-06
3.125,1.4072667309228626e-06
3.126,4.6657294866865456e-07
3.127,5.438339694646091e-07
3.128,4.361531970200741e-07
3.129,1.5403653030632515e-06
3.13,2.55310303568281e-06
3.131,2.6708648005582755e-06
3.132,2.790081544455494e-06
3.133,2.2071816430800406e-06
3.134,2.218652686411591e-06
3.135,2.6210992541168717e-06
3.136,2.8112959722576847e-06
3.137,3.886235331914858e-06
3.138,3.843169923455256e-06
3.139,3.679648891410248e-06
3.14,4.093548540436254e-06
3.141,4.283097120486143e-06
3.142,4.44689388880861e-06
3.143,4.983922589061534e-06
3.144,5.193559506555769e-06
3.145,4.475576257602823e-06
3.146,5.430137455294482e-06
3.147,3.957793369641464e-06
3.148,2.2594676730047032e-06
3.149,2.836440338294778e-06
3.15,2.5903257432213376e-06
3.151,1.323046033949005e-06
3.152,-6.632001801444663e-07
3.153,-1.565973689568228e-06
3.154,-2.8263493296621576e-07
3.155,-1.7103883740089963e-06
3.156,-5.246330646261993e-06
3.157,-1.7875019840829288e-06
3.158,8.690596761702175e-07
3.159,-1.0737373192040447e-06
3.16,7.869046258615679e-07
3.161,1.1536153363887318e-06
3.162,-2.8711989947534774e-06
3.163,-2.1854092651467407e-06
3.164,-1.3872132093778241e-06
3.165,-2.875180094989808e-06
3.166,-1.3482890400904696e-06
3.167,-3.0595968075164685e-07
3.168,-1.3480740190029036e-06
3.169,-3.5749884319089965e-06
3.17,-5.18753501720968e-06
3.171,-4.287011687649882e-06
3.172,-3.575160698909827e-06
3.173,-6.154135597713761e-06
3.174,-5.926456898488594e-06
3.175,-5.394957128885002e-06
3.176,-8.662716215706779e-06
3.177,-8.232988501980496e-06
3.178,-6.309122981625141e-06
3.179,-6.394478599404693e-06
3.18,-5.5923366803038086e-06
3.181,-5.80581271509566e-06
3.182,-5.137769830170058e-06
3.183,-5.4907363040432844e-06
3.184,-6.06682945689664e-06
3.185,-5.567688131823625e-06
3.186,-7.494415808450891e-06
3.187,-7.9475361448995e-06
3.188,-7.026962438677995e-06
3.189,-7.331982139226157e-06
3.19,-9.561257144562856e-06
3.191,-1.0212840183552337e-05
3.192,-1.0184207136627018e-05
3.193,-1.067230469513558e-05
3.194,-1.0673612316898095e-05
3.195,-1.2184217016985756e-05
3.196,-1.319989915152734e-05
3.197,-1.2616227020732263e-05
3.198,-1.3728657846081077e-05
3.199,-1.4232642474668534e-05
3.2,-1.2823731037736058e-05
3.201,-1.2997676744832646e-05
3.202,-1.3650535031590495e-05
3.203,-1.417875539697118e-05
3.204,-1.4679263461628656e-05
3.205,-1.4449531046879975e-05
3.206,-1.4287632405539734e-05
3.207,-1.569228512143905e-05
3.208,-1.5862874622045542e-05
3.209,-1.5899461705207376e-05
3.21,-1.6702772952823126e-05
3.211,-1.68741743769923e-05
3.212,-1.711562910383223e-05
3.213,-1.7229640333117643e-05
3.214,-1.701918120565968e-05
3.215,-1.7087613553717385e-05
3.216,-1.8038597793264152e-05
3.217,-1.7275996433146314e-05
3.218,-1.740377381978242e-05
3.219,-1.7525894804094145e-05
3.22,-1.564622500921903e-05
3.221,-1.4568435294946303e-05
3.222,-1.4295912861660799e-05
3.223,-1.4331681218832329e-05
3.224,-1.4878330968485452e-05
3.225,-1.4937963031854585e-05
3.226,-1.4112145587950268e-05
3.227,-1.4801885607199395e-05
3.228,-1.480761546325273e-05
3.229,-1.5629194703086115e-05
3.23,-1.6065926660939456e-05
3.231,-1.4716589226051878e-05
3.232,-1.4879478727207252e-05
3.233,-1.5452465587224895e-05
3.234,-1.6333060134709584e-05
3.235,-1.6218486744041238e-05
3.236,-1.6605764311506488e-05
3.237,-1.5791790967745777e-05
3.238,-1.3873430874752502e-05
3.239,-1.4747600958400659e-05
3.24,-1.4811355482350126e-05
3.241,-1.4761966472383714e-05
3.242,-1.5696998146915483e-05
3.243,-1.531437369389086e-05
3.244,-1.461243295029377e-05
3.245,-1.3289979781339798e-05
3.246,-1.3346318215379456e-05
3.247,-1.4281276660850102e-05
3.248,-1.2895219806832906e-05
3.249,-1.3189048082841387e-05
3.25,-1.2164184820864617e-05
3.251,-1.082255151850635e-05
3.252,-1.4866531842058635e-05
3.253,-1.5398925228974725e-05
3.254,-1.3622891147575379e-05
3.255,-1.3341885245690086e-05
3.256,-1.4159588767621518e-05
3.257,-1.5079832739155775e-05
3.258,-1.1406518512563227e-05
3.259,-8.443536327228795e-06
3.26,-9.694683576558253e-06
3.261,-1.0163584478171547e-05
3.262,-8.653612822303633e-06
3.263,-8.66781942310646e-06
3.264,-9.60886581960549e-06
3.265,-9.978965667976955e-06
3.266,-8.87983513529803e-06
3.267,-9.512653447937719e-06
3.268,-1.0378034566532726e-05
3.269,-7.776010755642338e-06
3.27,-7.406028591746436e-06
3.271,-9.566957710819826e-06
3.272,-1.1157112339438108e-05
3.273,-1.2374285385038606e-05
3.274,-1.1615794586010102e-05
3.275,-1.0678539945798264e-05
3.276,-1.0859071402864526e-05
3.277,-1.0553665426314374e-05
3.278,-1.1458408981901648e-05
3.279,-1.2669289091743965e-05
3.28,-1.1682286020325945e-05
3.281,-1.0893467965930374e-05
3.282,-1.1399085026824784e-05
3.283,-1.1395660150987459e-05
3.284,-1.2380074771613812e-05
3.285,-1.2649646881672989e-05
3.286,-1.060219941156906e-05
3.287,-1.0336116945099115e-05
3.288,-1.1550389039246101e-05
3.289,-1.2144638699905684e-05
3.29,-1.2319134903533567e-05
3.291,-1.2374788437151725e-05
3.292,-1.271313074761643e-05
3.293,-1.2136275935351559e-05
3.294,-1.1946866486312944e-05
3.295,-1.304800379609656e-05
3.296,-1.2043164988410515e-05
3.297,-1.0936107952825818e-05
3.298,-1.1330766910125501e-05
3.299,-1.2431141144558342e-05
3.3,-1.2741179808764514e-05
3.301,-1.1864665898443152e-05
3.302,-1.1105102601243836e-05
3.303,-9.465605241439e-06
3.304,-9.94880196482521e-06
3.305,-1.0156746136014868e-05
3.306,-1.0390843154819342e-05
3.307,-1.3251794044859433e-05
3.308,-1.353955773394836e-05
3.309,-1.2053333443118304e-05
3.31,-1.1491564042945961e-05
3.311,-1.3951960637858402e-05
3.312,-1.613154801894385e-05
3.313,-1.562673000228931e-05
3.314,-1.4233373062525229e-05
3.315,-1.4746906099624325e-05
3.316,-1.696243366000114e-05
3.317,-1.6174859488244876e-05
3.318,-1.5079016929137756e-05
3.319,-1.3569802444225227e-05
3.32,-1.4742308363368149e-05
3.321,-1.6891950966255654e-05
3.322,-1.6614590084879496e-05
3.323,-1.87066366346185e-05
3.324,-1.5765144814012956e-05
3.325,-1.318788615274734e-05
3.326,-1.5573403121327045e-05
3.327,-1.6721040628577435e-05
3.328,-1.7930954405669824e-05
3.329,-1.5304095986829702e-05
3.33,-1.4242174724514323e-05
3.331,-1.6147597997068845e-05
3.332,-1.5023391455992707e-05
3.333,-1.6973101794985308e-05
3.334,-1.7100685082412344e-05
3.335,-1.4210384163527613e-05
3.336,-1.5406598992444625e-05
3.337,-1.4593753983782234e-05
3.338,-1.3876166571463622e-05
3.339,-1.4057921123075712e-05
3.34,-1.424275218284888e-05
3.341,-1.6733940709686967e-05
3.342,-1.5234226548282269e-05
3.343,-1.1445739834947928e-05
3.344,-1.0469953412957572e-05
3.345,-9.607657635699166e-06
3.346,-1.0358958193166531e-05
3.347,-1.1823296833308698e-05
3.348,-1.179949409050059e-05
3.349,-1.1585812404827345e-05
3.35,-1.118003734299371e-05
3.351,-1.1679574037659322e-05
3.352,-1.3181555467384999e-05
3.353,-1.2682958821278526e-05
3.354,-1.1980725943950317e-05
3.355,-1.1971883746107877e-05
3.356,-1.0953660497771231e-05
3.357,-1.1023594093404592e-05
3.358,-1.2179628684981034e-05
3.359,-1.1720196509089433e-05
3.36,-9.644282272213534e-06
3.361,-9.551468084955727e-06
3.362,-1.0941957628750463e-05
3.363,-8.016578972643356e-06
3.364,-5.5767662066491145e-06
3.365,-7.324520795158628e-06
3.366,-7.362354252412622e-06
3.367,-4.693214377181063e-06
3.368,-6.52039783281492e-06
3.369,-8.147452302277485e-06
3.37,-6.178071770037047e-06
3.371,-7.915988672719385e-06
3.372,-7.464866712007407e-06
3.373,-5.428198035410965e-06
3.374,-5.409208267400484e-06
3.375,-5.810772524236063e-06
3.376,-5.73534508459117e-06
3.377,-6.384904832920416e-06
3.378,-6.460917965140216e-06
3.379,-4.2643187709657125e-06
3.38,-5.1955086103551865e-06
3.381,-4.754372509917079e-06
3.382,-2.6403121455591115e-06
3.383,-2.8522933755559276e-06
3.384,-4.288905966775151e-06
3.385,-5.648432736066828e-06
3.386,-5.1289250248637215e-06
3.387,-4.328281249344692e-06
3.388,-3.944325227495043e-06
3.389,-4.87488107912721e-06
3.39,-6.417841721057818e-06
3.391,-6.571228327553664e-06
3.392,-6.333238581298843e-06
3.393,-6.602282083562596e-06
3.394,-6.4770019013390055e-06
3.395,-7.156281878575929e-06
3.396,-7.339240000981218e-06
3.397,-5.8252087513298675e-06
3.398,-5.513703997105469e-06
3.399,-7.0043844886043985e-06
3.4,-6.4970044897683795e-06
3.401,-5.391362396008609e-06
3.402,-6.987248397542414e-06
3.403,-6.684394312791957e-06
3.404,-5.882428639292491e-06
3.405,-6.3808396503220805e-06
3.406,-6.478949011035055e-06
3.407,-7.975897910984898e-06
3.408,-9.170647128647422e-06
3.409,-9.661991780747427e-06
3.41,-1.0448590791605904e-05
3.411,-9.229010375046177e-06
3.412,-8.901780085090294e-06
3.413,-9.965459293771168e-06
3.414,-8.51871132618517e-06
3.415,-7.460381953726863e-06
3.416,-8.589578542361427e-06
3.417,-9.90574589553222e-06
3.418,-1.0708734737249874e-05
3.419,-9.298858860309479e-06
3.42,-8.876937220943451e-06
3.421,-9.944317690999577e-06
3.422,-1.160287977126316e-05
3.423,-1.2255014307237356e-05
3.424,-1.2103579107529702e-05
3.425,-1.1251830315257238e-05
3.426,-7.5033303901524745e-06
3.427,-6.861834585391227e-06
3.428,-7.631158808474206e-06
3.429,-8.21503269900664e-06
3.43,-8.316942598028608e-06
3.431,-5.9399697861870776e-06
3.432,-7.186629897969732e-06
3.433,-9.558719748265591e-06
3.434,-7.95717791407762e-06
3.435,-7.781965284326514e-06
3.436,-8.431971418786547e-06
3.437,-7.6049519466088295e-06
3.438,-8.497501398000257e-06
3.439,-9.405064820720422e-06
3.44,-9.321990315817003e-06
3.441,-9.641623271710865e-06
3.442,-1.075644162609073e-05
3.443,-1.0358229989877847e-05
3.444,-1.0438288979016444e-05
3.445,-1.0187674671941896e-05
3.446,-1.0897461796935877e-05
3.447,-1.4059023105673469e-05
3.448,-1.3564316454466075e-05
3.449,-1.3206170434428611e-05
3.45,-1.3378558999873625e-05
3.451,-1.247685546542608e-05
3.452,-1.2898056491235883e-05
3.453,-1.3340967255776712e-05
3.454,-1.360633991912153e-05
3.455,-1.1896958686790072e-05
3.456,-1.0817666264587983e-05
3.457,-1.0075328207171477e-05
3.458,-6.57873355693488e-06
3.459,-4.838432186974834e-06
3.46,-5.466511338066791e-06
3.461,-5.576315906582078e-06
3.462,-5.3821190281592495e-06
3.463,-5.598751341474689e-06
3.464,-6.04119894144923e-06
3.465,-7.224181380911768e-06
3.466,-4.861722100986224e-06
3.467,-2.8667243197876143e-06
3.468,-4.55056565428352e-06
3.469,-5.622724572017582e-06
3.47,-6.390451162118387e-06
3.471,-6.158493687170745e-06
3.472,-6.928890951902797e-06
3.473,-8.700838737862446e-06
3.474,-9.370636454823938e-06
3.475,-6.931717810605734e-06
3.476,-6.474766772016853e-06
3.477,-8.187917459055201e-06
3.478,-9.057033965599855e-06
3.479,-1.0166063518405461e-05
3.48,-9.997453957525634e-06
3.481,-1.0632624327382784e-05
3.482,-1.1452475484498195e-05
3.483,-1.203792612260154e-05
3.484,-1.3370458544527919e-05
3.485,-1.3132657915859337e-05
3.486,-1.3808728645695715e-05
3.487,-1.5584971967221594e-05
3.488,-1.5550209730118603e-05
3.489,-1.6196140846772923e-05
3.49,-1.6817618716637394e-05
3.491,-1.681284023462339e-05
3.492,-1.7383439602706616e-05
3.493,-1.7734483029849483e-05
3.494,-1.717436343522827e-05
3.495,-1.5714597368305127e-05
3.496,-1.4369529427578753e-05
3.497,-1.3455952398556093e-05
3.498,-1.2292654044131719e-05
3.499,-1.1199903876750523e-05
3.5,-1.0098895240188905e-05
3.501,-8.811159560182808e-06
3.502,-7.557970632469768e-06
3.503,-7.059757265465545e-06
3.504,-7.1355424619379995e-06
3.505,-5.502426607576183e-06
3.506,-5.275130851177313e-06
3.507,-5.26561504686564e-06
3.508,-3.9827823365961415e-06
3.509,-4.4322797506316404e-06
3.51,-4.716401178210977e-06
3.511,-5.034095805220212e-06
3.512,-5.481081733773114e-06
3.513,-5.950061098810622e-06
3.514,-6.431029689398238e-06
3.515,-6.811670975664491e-06
3.516,-7.5778216390916675e-06
3.517,-8.013993298034767e-06
3.518,-8.903933193707265e-06
3.519,-9.531205221364966e-06
3.52,-8.47977190677869e-06
3.521,-8.434557770074474e-06
3.522,-9.981974998256154e-06
3.523,-1.111039345416823e-05
3.524,-1.2310538752760144e-05
3.525,-1.2175804385055632e-05
3.526,-1.2602466597796322e-05
3.527,-1.3689793857799915e-05
3.528,-1.4440046146651676e-05
3.529,-1.4958362935060902e-05
3.53,-1.555254236174675e-05
3.531,-1.5932717770535336e-05
3.532,-1.581094122351057e-05
3.533,-1.5600686794063287e-05
3.534,-1.7616289246177552e-05
3.535,-2.00723360315496e-05
3.536,-1.908303230516143e-05
3.537,-1.986155981111849e-05
3.538,-2.0019450981783956e-05
3.539,-2.0265999403332908e-05
3.54,-2.3207726930401924e-05
3.541,-2.554792620397832e-05
3.542,-2.5786295183757723e-05
3.543,-2.4718677612556123e-05
3.544,-2.833692016763494e-05
3.545,-3.20288535190887e-05
3.546,-3.3978400718251427e-05
3.547,-3.7965812397835486e-05
3.548,-4.046802430383123e-05
3.549,-4.3059128821906276e-05
3.55,-4.72109485302222e-05
3.551,-4.979369652163699e-05
3.552,-5.327670539620039e-05
3.553,-5.552920452093723e-05
3.554,-5.462112346270316e-05
3.555,-5.712389847683131e-05
3.556,-6.0011258613894316e-05
3.557,-5.955996840167453e-05
3.558,-5.8550505159384775e-05
3.559,-5.846765077417953e-05
3.56,-5.880098016273079e-05
3.561,-5.544523158035074e-05
3.562,-5.0400547336881146e-05
3.563,-4.697257722809099e-05
3.564,-4.4172440978380415e-05
3.565,-3.911655009258951e-05
3.566,-3.39262936056025e-05
3.567,-2.9327596172701483e-05
3.568,-2.3050360640226427e-05
3.569,-1.7227810562311796e-05
3.57,-1.1395750984393023e-05
3.571,-6.3917681118908555e-06
3.572,-1.543901546974799e-07
3.573,9.277767363760016e-06
3.574,1.8966848247423464e-05
3.575,2.607657104327469e-05
3.576,3.257299115723782e-05
3.577,3.912518934894904e-05
3.578,4.4905868631761996e-05
3.579,5.009184447058173e-05
3.58,5.3564416463169707e-05
3.581,5.6309613306147105e-05
3.582,5.791830667150252e-05
3.583,5.998619353383679e-05
3.584,6.0313650371886165e-05
3.585,6.010546640109447e-05
3.586,5.977046646393104e-05
3.587,6.052103730730197e-05
3.588,5.887257362024562e-05
3.589,5.43428623138283e-05
3.59,5.0551425039923794e-05
3.591,4.5518839826690775e-05
3.592,4.176606293660266e-05
3.593,3.8213771628996134e-05
3.594,3.528174745482774e-05
3.595,3.298831806766599e-05
3.596,3.364987336086287e-05
3.597,3.468046911119508e-05
3.598,3.47915283122402e-05
3.599,3.329164711494105e-05
3.6,2.858650886396434e-05
3.601,2.5878906236036854e-05
3.602,2.6568868060127804e-05
3.603,2.515388413556171e-05
3.604,2.162921836273197e-05
3.605,1.9488297852231157e-05
3.606,1.5423163459737304e-05
3.607,1.1924965469042808e-05
3.608,1.1784486960881232e-05
3.609,7.492676789689389e-06
3.61,1.0411740547760965e-06
3.611,-1.7771935112330704e-06
3.612,-5.067953731026655e-06
3.613,-8.234591656002199e-06
3.614,-1.077822159926392e-05
3.615,-1.41973399948619e-05
3.616,-1.6587666847877833e-05
3.617,-1.9442080633539275e-05
3.618,-2.335064848713947e-05
3.619,-2.6900750496451592e-05
3.62,-3.077729395966276e-05
3.621,-3.666301069554314e-05
3.622,-4.3838827972551255e-05
3.623,-4.378430143428474e-05
3.624,-4.667809660284186e-05
3.625,-5.589850418851803e-05
3.626,-6.012397355830433e-05
3.627,-6.293364833576672e-05
3.628,-6.520788822407437e-05
3.629,-6.782876174953596e-05
3.63,-7.058049568736484e-05
3.631,-7.194986841309654e-05
3.632,-7.432653626849706e-05
3.633,-7.980328417603506e-05
3.634,-8.277619410912325e-05
3.635,-8.074472754884694e-05
3.636,-7.951172065124768e-05
3.637,-7.928329343143686e-05
3.638,-8.006867676303933e-05
3.639,-8.057996331941689e-05
3.64,-8.093179067930672e-05
3.641,-8.234096662517879e-05
3.642,-8.112604812940862e-05
3.643,-7.930688661456435e-05
3.644,-7.780415276551609e-05
3.645,-7.743885445144378e-05
3.646,-7.493186118687086e-05
3.647,-6.950344803688651e-05
3.648,-6.877287097884194e-05
3.649,-6.815798450776662e-05
3.65,-6.527491076152865e-05
3.651,-6.133776769783893e-05
3.652,-5.725846193769613e-05
3.653,-5.424654986152137e-05
3.654,-5.080916846932596e-05
3.655,-4.81510354585755e-05
3.656,-4.4874515994264675e-05
3.657,-4.107975180208926e-05
3.658,-4.126484655853266e-05
3.659,-3.812610012485678e-05
3.66,-3.145828301061973e-05
3.661,-2.9854941582363716e-05
3.662,-2.8108723970690654e-05
3.663,-2.551171638029811e-05
3.664,-2.5455779569138626e-05
3.665,-2.5132875621838646e-05
3.666,-2.3535375777452538e-05
3.667,-2.165634095353373e-05
3.668,-2.048976770200145e-05
3.669,-1.9730793596946963e-05
3.67,-1.8375857446359106e-05
3.671,-1.772281119268109e-05
3.672,-1.6370981874511422e-05
3.673,-1.5921183517910902e-05
3.674,-1.5675680267245774e-05
3.675,-1.5138103412381885e-05
3.676,-1.3913326186055797e-05
3.677,-1.2307301262574714e-05
3.678,-1.3026866762983392e-05
3.679,-1.2579527245406569e-05
3.68,-1.1473216622148e-05
3.681,-8.716050193781725e-06
3.682,-7.0160730279184126e-06
3.683,-8.081011745668131e-06
3.684,-9.318036426639414e-06
3.685,-9.833538822930905e-06
3.686,-8.632932407181812e-06
3.687,-9.320478995485061e-06
3.688,-9.099145810925563e-06
3.689,-8.370495916767178e-06
3.69,-8.834613978983186e-06
3.691,-7.690068344158201e-06
3.692,-1.0133909467366059e-05
3.693,-1.3561703819669147e-05
3.694,-1.4167601567672617e-05
3.695,-1.4844435566014331e-05
3.696,-1.4683848552024604e-05
3.697,-1.5976444890481382e-05
3.698,-1.7711962792019802e-05
3.699,-1.7179462624222682e-05
3.7,-1.876752674912807e-05
3.701,-2.006446625109526e-05
3.702,-2.01585299581669e-05
3.703,-1.9938111299459704e-05
3.704,-1.9991948770106583e-05
3.705,-2.340931608196639e-05
3.706,-2.5680198450013433e-05
3.707,-2.42954518879895e-05
3.708,-2.4446942849609435e-05
3.709,-2.852766604088493e-05
3.71,-2.9831838733268323e-05
3.711,-2.875497041561389e-05
3.712,-2.9093907125871785e-05
3.713,-3.074685029267485e-05
3.714,-3.231335038553089e-05
3.715,-3.3094276114399464e-05
3.716,-3.3191760330358896e-05
3.717,-2.9909124155214763e-05
3.718,-3.0250781206476275e-05
3.719,-3.192212408303786e-05
3.72,-3.052939553456964e-05
3.721,-3.167954695283478e-05
3.722,-3.2980086994935e-05
3.723,-3.083892327598975e-05
3.724,-2.8564200151201127e-05
3.725,-2.8164135643898627e-05
3.726,-2.964686056631746e-05
3.727,-2.992026282296746e-05
3.728,-2.96918397821362e-05
3.729,-3.10685614493038e-05
3.73,-2.9456746977462795e-05
3.731,-2.7061956804588024e-05
3.732,-2.7888902419617207e-05
3.733,-2.8941375428019086e-05
3.734,-2.912219722010962e-05
3.735,-2.8333190144600797e-05
3.736,-2.7375170662461723e-05
3.737,-2.804796450920118e-05
3.738,-2.7450443435400385e-05
3.739,-2.45805826349374e-05
3.74,-2.5235537517851367e-05
3.741,-2.6611738050744716e-05
3.742,-2.6404998482852216e-05
3.743,-2.651063991122002e-05
3.744,-2.702362282426762e-05
3.745,-2.6238686509052153e-05
3.746,-2.6150492022429078e-05
3.747,-2.7053765317183853e-05
3.748,-2.654343708651984e-05
3.749,-2.7614775947421324e-05
3.75,-2.7063511726510594e-05
3.751,-2.5885945839818736e-05
3.752,-2.6779046066640444e-05
3.753,-2.6340523401107732e-05
3.754,-2.596888911466671e-05
3.755,-2.5263490667422012e-05
3.756,-2.472452565351353e-05
3.757,-2.50530335408668e-05
3.758,-2.5450865553147753e-05
3.759,-2.4820633625120403e-05
3.76,-2.3765639925157366e-05
3.761,-2.2789788963939876e-05
3.762,-1.8997484780756392e-05
3.763,-1.8293516103906366e-05
3.764,-2.108293270698083e-05
3.765,-2.0370916417883253e-05
3.766,-2.0262650374639933e-05
3.767,-1.9963190156483284e-05
3.768,-1.877734034862845e-05
3.769,-1.9409539926050602e-05
3.77,-1.916375957005223e-05
3.771,-1.9943413669210674e-05
3.772,-2.0351289314015526e-05
3.773,-1.938949408529238e-05
3.774,-1.8759423875676818e-05
3.775,-1.8161751387932672e-05
3.776,-1.7396435341934008e-05
3.777,-1.6462749812336914e-05
3.778,-1.5659332530008615e-05
3.779,-1.648425043016023e-05
3.78,-1.59350802356254e-05
3.781,-1.5609001439842256e-05
3.782,-1.500289871356868e-05
3.783,-1.2513470512257641e-05
3.784,-1.25373405144016e-05
3.785,-1.1371168478865233e-05
3.786,-1.4011757171765757e-05
3.787,-1.7056152177989283e-05
3.788,-1.5301731672878217e-05
3.789,-1.3246283576898378e-05
3.79,-1.2588067938407582e-05
3.791,-1.2725862872917556e-05
3.792,-1.3058992915574872e-05
3.793,-1.2487339199814613e-05
3.794,-1.2711331441399172e-05
3.795,-1.2831922265374621e-05
3.796,-8.350544946384858e-06
3.797,-9.469056123865414e-06
3.798,-1.0889665488073375e-05
3.799,-9.414854797934289e-06
3.8,-9.34728887699092e-06
3.801,-7.689721431768127e-06
3.802,-6.844898643031805e-06
3.803,-6.315463493188334e-06
3.804,-5.903863713980081e-06
3.805,-6.3122660721647245e-06
3.806,-7.942479464252185e-06
3.807,-8.9958889742883e-06
3.808,-8.073402672863895e-06
3.809,-7.875412514367856e-06
3.81,-8.401770237510042e-06
3.811,-6.951778706458631e-06
3.812,-7.624198661808793e-06
3.813,-8.71727039685005e-06
3.814,-8.428749449142329e-06
3.815,-8.455955012802736e-06
3.816,-7.495829443959278e-06
3.817,-6.545006959295696e-06
3.818,-5.199889421947276e-06
3.819,-6.05672697422362e-06
3.82,-7.611701214242426e-06
3.821,-6.86100862260539e-06
3.822,-8.100942022439111e-06
3.823,-9.927967996025304e-06
3.824,-9.03879837655282e-06
3.825,-7.930454175402987e-06
3.826,-7.00032058383382e-06
3.827,-7.946191992208501e-06
3.828,-9.466306288936236e-06
3.829,-8.459368024056825e-06
3.83,-7.324560338376181e-06
3.831,-8.861545858563865e-06
3.832,-1.017045703312125e-05
3.833,-6.1518766265021695e-06
3.834,-5.606809293402874e-06
3.835,-8.436645318550665e-06
3.836,-8.143117727195048e-06
3.837,-7.928254047685293e-06
3.838,-7.094324041390139e-06
3.839,-4.943784709671413e-06
3.84,-3.77922384682708e-06
3.841,-4.203303337069277e-06
3.842,-4.01870329862101e-06
3.843,-3.52806806525878e-06
3.844,-3.733954871562104e-06
3.845,-3.6387859790323692e-06
3.846,-5.0448048519156565e-06
3.847,-4.454036869095248e-06
3.848,-4.3682549459655605e-06
3.849,-7.088950340852888e-06
3.85,-3.9173088362213204e-06
3.851,-5.541924163187023e-07
3.852,-3.900126509614324e-06
3.853,-5.755292824825227e-06
3.854,-4.319527781030615e-06
3.855,-4.592326512101118e-06
3.856,-3.772852409646345e-06
3.857,-1.95995215286697e-06
3.858,-4.852176154019374e-06
3.859,-5.747804320854112e-06
3.86,-3.5448769990706703e-06
3.861,-3.4412309059747862e-06
3.862,-7.345397994991537e-07
3.863,-3.223595440077512e-07
3.864,-1.5021771364788204e-06
3.865,-1.1714631456064745e-06
3.866,-1.9277268951240548e-06
3.867,-2.0685735953953124e-06
3.868,-2.7917624991696494e-06
3.869,-2.9952650342529795e-06
3.87,-2.7773217541233216e-06
3.871,-3.53649685388487e-06
3.872,-3.471728929994435e-06
3.873,-3.682376624119592e-06
3.874,-2.76825778979923e-06
3.875,-2.329680859765504e-06
3.876,-2.467467175063043e-06
3.877,-1.7829631661640304e-06
3.878,-1.8780414511294988e-06
3.879,-2.3550901347086296e-06
3.88,-1.4169898514438631e-06
3.881,4.3292161011433336e-07
3.882,-2.1091030567242313e-06
3.883,-1.8471612802874919e-06
3.884,3.6143696975817085e-06
3.885,4.370912844762114e-06
3.886,8.177795468781963e-07
3.887,-1.349735838548433e-06
3.888,-5.36257191733628e-07
3.889,-3.1462259372033675e-06
3.89,-1.9838009458297813e-06
3.891,2.947238369990789e-06
3.892,8.435831439055606e-07
3.893,-1.4975222475827893e-06
3.894,4.2179167701350484e-07
3.895,1.7000782955678358e-06
3.896,1.7366186498444751e-06
3.897,1.1314485878863396e-06
3.898,9.85368092620753e-07
3.899,9.99932070425878e-07
3.9,6.774223728811284e-07
3.901,5.208013470581869e-07
3.902,2.033647738880825e-06
3.903,1.6200762939646516e-06
3.904,-2.615357105543756e-06
3.905,-2.7677624773914e-06
3.906,-2.8320322630173028e-06
3.907,-3.6029643284636636e-06
3.908,-3.175388190302532e-06
3.909,-6.144291064545893e-06
3.91,-9.304940285079397e-06
3.911,-6.95299868881987e-06
3.912,-4.684629717911133e-06
3.913,-6.496589241938798e-06
3.914,-7.086301449210572e-06
3.915,-7.95191658638296e-06
3.916,-8.292348828044608e-06
3.917,-7.907293117746432e-06
3.918,-6.697220422813563e-06
3.919,-6.063351468985043e-06
3.92,-6.507609648461227e-06
3.921,-6.732554406918054e-06
3.922,-7.741296992397998e-06
3.923,-7.537400973554475e-06
3.924,-7.524770389880635e-06
3.925,-8.207528767743457e-06
3.926,-1.048989251128485e-05
3.927,-9.076042347531693e-06
3.928,-9.069996564648379e-06
3.929,-1.1275489728929228e-05
3.93,-9.595860401195014e-06
3.931,-9.633951101609265e-06
3.932,-1.0092023401838021e-05
3.933,-8.871690566353724e-06
3.934,-8.873869634710385e-06
3.935,-7.798754250288647e-06
3.936,-1.0245808916600003e-05
3.937,-1.3813784719211059e-05
3.938,-1.1900755909715374e-05
3.939,-1.2504176127867034e-05
3.94,-1.2520952458174856e-05
3.941,-1.2847534995766742e-05
3.942,-1.3280019149060857e-05
3.943,-1.311425754718394e-05
3.944,-1.3245978158752436e-05
3.945,-1.2170905072991422e-05
3.946,-1.3784878348211539e-05
3.947,-1.3483969396888416e-05
3.948,-1.156458854797844e-05
3.949,-1.4423581699274807e-05
3.95,-1.55583133360297e-05
3.951,-1.4666733634418257e-05
3.952,-1.6847427874994993e-05
3.953,-1.5699646945526078e-05
3.954,-1.4223318296586575e-05
3.955,-1.5219037308494813e-05
3.956,-1.4988039615810945e-05
3.957,-1.4932155497561842e-05
3.958,-1.5053747960455722e-05
3.959,-1.4355636603146155e-05
3.96,-1.4241009738717797e-05
3.961,-1.3913327559137965e-05
3.962,-1.4176219341404426e-05
3.963,-1.4533377815512489e-05
3.964,-1.3288453837297005e-05
3.965,-1.2344954435956852e-05
3.966,-1.2506147140958504e-05
3.967,-1.2074973243205627e-05
3.968,-1.2253972320555868e-05
3.969,-1.584521996985042e-05
3.97,-1.6150280250213294e-05
3.971,-1.4670173870348319e-05
3.972,-1.5005362661516015e-05
3.973,-1.4755750383621008e-05
3.974,-1.5520699429867133e-05
3.975,-1.5699062540410798e-05
3.976,-1.588922822074202e-05
3.977,-1.5289178197839174e-05
3.978,-1.429655494614251e-05
3.979,-1.380873708344661e-05
3.98,-1.3522920278836984e-05
3.981,-1.4536201233154268e-05
3.982,-1.4545662286972922e-05
3.983,-1.5348454279097757e-05
3.984,-1.474187541517868e-05
3.985,-1.4723444104265072e-05
3.986,-1.7890963972268406e-05
3.987,-1.8942579555305984e-05
3.988,-1.6276821501709426e-05
3.989,-1.5092640457478261e-05
3.99,-1.8589429164373003e-05
3.991,-1.886703265115828e-05
3.992,-1.6425746735858054e-05
3.993,-1.7566305370385826e-05
3.994,-1.6789857639969027e-05
3.995,-1.5097935471323624e-05
3.996,-1.5192413300182428e-05
3.997,-1.4275461096972178e-05
3.998,-1.4749492247444168e-05
3.999,-1.4817107832976329e-05
4.0,-1.3381038854873967e-05
4.001,-1.1144087901646972e-05
4.002,-1.1609071672623657e-05
4.003,-1.407876565115871e-05
4.004,-1.4855852072705246e-05
4.005,-1.3342872164267011e-05
4.006,-1.1142183449561963e-05
4.007,-1.1755922725869547e-05
4.008,-1.2485975130900482e-05
4.009,-1.3833949537415553e-05
4.01,-1.550116034520549e-05
4.011,-1.4788615588920392e-05
4.012,-1.3897011149495653e-05
4.013,-1.3126730748782422e-05
4.014,-1.2877851322499257e-05
4.015,-1.2850153305676297e-05
4.016,-1.2643135326214679e-05
4.017,-1.2956032783954802e-05
4.018,-1.248783979190332e-05
4.019,-1.1937333969612498e-05
4.02,-1.1703103602377216e-05
4.021,-1.158357671002171e-05
4.022,-1.167705160176861e-05
4.023,-1.1381728525480057e-05
4.024,-1.079574204735331e-05
4.025,-1.0417193819483079e-05
4.026,-1.2044185405839873e-05
4.027,-1.2774850841244307e-05
4.028,-1.250738859277778e-05
4.029,-1.2840092579533446e-05
4.03,-1.3671381886246658e-05
4.031,-1.3899828781412306e-05
4.032,-1.4224184623835301e-05
4.033,-1.4143403216417769e-05
4.034,-1.3156661145846951e-05
4.035,-1.2863374635238732e-05
4.036,-1.2763212437079558e-05
4.037,-1.3456104309014395e-05
4.038,-1.4742244647631398e-05
4.039,-1.4122090907187436e-05
4.04,-1.3096356502162302e-05
4.041,-1.3065997984667544e-05
4.042,-1.3532196399123837e-05
4.043,-1.4196332845327676e-05
4.044,-1.4059958424150152e-05
4.045,-1.4224758893860774e-05
4.046,-1.5392514524877373e-05
4.047,-1.4765055801422995e-05
4.048,-1.204421577448932e-05
4.049,-1.303178001580814e-05
4.05,-1.6229435251349302e-05
4.051,-1.6838717859562057e-05
4.052,-1.6060963498976084e-05
4.053,-1.429725917738406e-05
4.054,-1.4948399087018334e-05
4.055,-1.641484550434987e-05
4.056,-1.5696695987999282e-05
4.057,-1.5093658003676397e-05
4.058,-1.6205031962300365e-05
4.059,-1.5029703479093444e-05
4.06,-1.2066145451368294e-05
4.061,-1.581243031602771e-05
4.062,-1.7066252590608476e-05
4.063,-1.692496153105377e-05
4.064,-1.9385603462977175e-05
4.065,-1.8844973069101547e-05
4.066,-1.729967265209091e-05
4.067,-1.604617814731534e-05
4.068,-1.7880910441988545e-05
4.069,-1.8600310372754168e-05
4.07,-1.890091562944502e-05
4.071,-1.9479437693586654e-05
4.072,-1.873283689017054e-05
4.073,-2.0058393632781776e-05
4.074,-2.025377399631975e-05
4.075,-1.921708785773485e-05
4.076,-1.87469380013081e-05
4.077,-2.1242458787417624e-05
4.078,-2.1203343227467322e-05
4.079,-1.8329857586455365e-05
4.08,-1.7522842941225155e-05
4.081,-1.7483703448616352e-05
4.082,-1.781438141476434e-05
4.083,-1.8417319595578585e-05
4.084,-1.8095411489785668e-05
4.085,-1.7251940700857283e-05
4.086,-1.82905107341093e-05
4.087,-1.8614966852393183e-05
4.088,-2.0729311831144525e-05
4.089,-1.713761762523536e-05
4.09,-1.3443935081465905e-05
4.091,-1.6852203898350756e-05
4.092,-1.796616504725628e-05
4.093,-1.6789277825530324e-05
4.094,-1.5924643614088937e-05
4.095,-1.6674938261428787e-05
4.096,-1.6442354816973318e-05
4.097,-1.4428558093977456e-05
4.098,-1.193465226189375e-05
4.099,-1.3361162356998847e-05
4.1,-1.6808030265738797e-05
4.101,-1.567462538571001e-05
4.102,-1.2359769812778464e-05
4.103,-9.561777547972684e-06
4.104,-1.0078506872781124e-05
4.105,-1.4307424714375794e-05
4.106,-1.634568152064383e-05
4.107,-1.5290194895706088e-05
