Time,Modified_Signal
0.0,-2.6695203505952227e-05
0.001,-2.949765369164329e-05
0.002,-3.2108426568830055e-05
0.003,-3.435117639007004e-05
0.004,-3.5109279640957816e-05
0.005,-3.553788696261528e-05
0.006,-3.586550918538475e-05
0.007,-3.6685156133185664e-05
0.008,-3.6236643692840014e-05
0.009,-3.4583007976711675e-05
0.01,-3.358480864021391e-05
0.011,-3.357633852101004e-05
0.012,-3.36473542876687e-05
0.013,-3.393297573316264e-05
0.014,-3.461303247430365e-05
0.015,-3.402059145613007e-05
0.016,-3.285792767163586e-05
0.017,-3.321703943989509e-05
0.018,-3.3101140730711e-05
0.019,-3.284348652165658e-05
0.02,-3.2720405787483034e-05
0.021,-3.1156436625204746e-05
0.022,-3.012080529264355e-05
0.023,-2.7515940924787087e-05
0.024,-2.6660032253694123e-05
0.025,-2.68665991734045e-05
0.026,-2.582451768835392e-05
0.027,-2.5081832841552443e-05
0.028,-2.343604582755552e-05
0.029,-2.333248239628227e-05
0.03,-2.367102225410246e-05
0.031,-2.5220113680557283e-05
0.032,-2.8335835395118156e-05
0.033,-2.968298510684543e-05
0.034,-2.7854892324094733e-05
0.035,-2.5888909083665852e-05
0.036,-2.527527473913113e-05
0.037,-2.565814947736117e-05
0.038,-2.282887941450041e-05
0.039,-1.9012783176592497e-05
0.04,-1.6651735829936398e-05
0.041,-1.3485414606814662e-05
0.042,-1.0934174587756747e-05
0.043,-9.28613598337722e-06
0.044,-9.390264127135822e-06
0.045,-8.156152460096478e-06
0.046,-6.36006374179208e-06
0.047,-4.8557420778499976e-06
0.048,-5.2877521393930205e-06
0.049,-7.604754695821604e-06
0.05,-6.970240455376209e-06
0.051,-6.968789347495916e-06
0.052,-7.5067986174830724e-06
0.053,-8.90767393011391e-06
0.054,-1.080251834378248e-05
0.055,-1.1518203109757805e-05
0.056,-1.1965214440751224e-05
0.057,-1.3727753179945501e-05
0.058,-1.605820468949872e-05
0.059,-1.7877354984702398e-05
0.06,-1.9880732074629266e-05
0.061,-2.1850368315792506e-05
0.062,-2.3570295144269694e-05
0.063,-2.354336467083495e-05
0.064,-2.3106667894442913e-05
0.065,-2.3642946214753246e-05
0.066,-2.2985955972326935e-05
0.067,-2.261865688229805e-05
0.068,-2.256420844741752e-05
0.069,-2.117089382027662e-05
0.07,-1.9793063873199168e-05
0.071,-1.9270847016041517e-05
0.072,-1.9611595851400205e-05
0.073,-2.277580231411117e-05
0.074,-2.386954566286904e-05
0.075,-2.354454837059013e-05
0.076,-2.560576064355371e-05
0.077,-2.7625257708862606e-05
0.078,-2.8160293999839534e-05
0.079,-2.9272761252282904e-05
0.08,-3.124713390293237e-05
0.081,-3.2004275975865635e-05
0.082,-3.2409177477666184e-05
0.083,-3.2771670556238e-05
0.084,-3.3040287475292766e-05
0.085,-3.3390486697885624e-05
0.086,-3.2709323138919765e-05
0.087,-3.167914365499555e-05
0.088,-3.0262975612903167e-05
0.089,-2.8393939007417487e-05
0.09,-3.05703125308332e-05
0.091,-2.9256939059972326e-05
0.092,-2.6192620658571266e-05
0.093,-2.890219319356894e-05
0.094,-2.9011236626735717e-05
0.095,-2.7660980747071886e-05
0.096,-2.5820963584871965e-05
0.097,-2.4997383587134043e-05
0.098,-2.5135788568768026e-05
0.099,-2.1317647562108644e-05
0.1,-1.695131004311185e-05
0.101,-1.4658719470414009e-05
0.102,-1.3659882278019968e-05
0.103,-1.1757406250041341e-05
0.104,-1.0323373233753564e-05
0.105,-1.0690417760938057e-05
0.106,-9.048215956858572e-06
0.107,-8.745759254254598e-06
0.108,-9.798927776659262e-06
0.109,-9.80212181092763e-06
0.11,-9.94216873702487e-06
0.111,-1.0612471571643803e-05
0.112,-1.1325430288964525e-05
0.113,-1.3121524295807975e-05
0.114,-1.2574025246169743e-05
0.115,-1.0589013239581713e-05
0.116,-9.80108116269512e-06
0.117,-9.265720580318001e-06
0.118,-1.0249798979743587e-05
0.119,-7.621708134577504e-06
0.12,-5.142674751571692e-06
0.121,-5.260407296054784e-06
0.122,-4.905772063881765e-06
0.123,-5.992635254747675e-06
0.124,-3.920471610697622e-06
0.125,-9.789112703398814e-07
0.126,-7.531396592120099e-07
0.127,-1.0290133249757486e-06
0.128,-1.6969045576899504e-06
0.129,-4.536025825181284e-07
0.13,-1.0020161443864529e-06
0.131,-2.748864047545471e-06
0.132,-4.100928432430362e-06
0.133,-5.060714352294149e-06
0.134,-5.422465571344221e-06
0.135,-7.169416783555802e-06
0.136,-7.172933567096729e-06
0.137,-8.193846961359776e-06
0.138,-8.18589170270164e-06
0.139,-8.400775510133012e-06
0.14,-9.594106634555718e-06
0.141,-9.031238302120137e-06
0.142,-9.992078767316695e-06
0.143,-8.974064593152673e-06
0.144,-8.392776391801766e-06
0.145,-8.280043187432216e-06
0.146,-7.979773375461249e-06
0.147,-7.64210363032719e-06
0.148,-6.61671613655406e-06
0.149,-6.146299440244671e-06
0.15,-4.161101377445639e-06
0.151,-4.775350547814949e-06
0.152,-5.9860348337804625e-06
0.153,-7.074168008760934e-06
0.154,-6.208304586229597e-06
0.155,-5.149735371601527e-06
0.156,-6.058560176107419e-06
0.157,-6.699723023904458e-06
0.158,-1.0248122304765854e-05
0.159,-1.1292065943053626e-05
0.16,-8.73460283557437e-06
0.161,-5.292585187026966e-06
0.162,-7.79365282855408e-06
0.163,-9.271630815785768e-06
0.164,-6.961053231495493e-06
0.165,-7.4916396477229925e-06
0.166,-7.283543114097946e-06
0.167,-5.644064433772645e-06
0.168,-3.566307646054645e-06
0.169,-2.6299693815372785e-06
0.17,-3.3041507906827806e-06
0.171,-5.551797255116597e-06
0.172,-6.235145995259342e-06
0.173,-5.021423809369927e-06
0.174,-3.1880028796055504e-06
0.175,-4.426294215886503e-06
0.176,-4.8438245495092516e-06
0.177,-4.1641803304952656e-06
0.178,-4.724780562618675e-06
0.179,-4.172722941603188e-06
0.18,-4.159199747045034e-06
0.181,-1.433170141189613e-06
0.182,-3.350807718601079e-07
0.183,-9.143404189046745e-08
0.184,1.089088081749548e-06
0.185,7.174168089086317e-07
0.186,-4.7647456161402234e-07
0.187,-1.2464998394297532e-06
0.188,-1.5354507637585821e-06
0.189,-1.981492556869704e-06
0.19,-2.3254094513249713e-06
0.191,-2.917735637187355e-06
0.192,-2.1249010301289026e-06
0.193,-2.633622557667776e-06
0.194,-3.0529708622433553e-06
0.195,-2.8138175251037116e-06
0.196,-1.965686878520698e-06
0.197,-6.713601541984353e-07
0.198,6.001330787223224e-07
0.199,2.5812886125830098e-06
0.2,2.313710690437255e-06
0.201,2.554562228075288e-06
0.202,2.981076676731676e-06
0.203,2.4925711044410203e-06
0.204,1.8097231668957763e-06
0.205,1.0712336788778908e-06
0.206,1.5283430179378242e-06
0.207,2.4379553540497118e-06
0.208,1.6553086238952174e-06
0.209,1.2271825651684012e-06
0.21,4.865522335406901e-07
0.211,-2.850619514892054e-06
0.212,-1.9860706757737726e-06
0.213,-2.037398420754426e-06
0.214,-2.6340450199728424e-06
0.215,-1.4117845153531842e-06
0.216,-3.1065964155362073e-06
0.217,-4.748890470906273e-06
0.218,-4.758976058002322e-06
0.219,-4.444460623702539e-06
0.22,-5.4999455427219074e-06
0.221,-5.1090134620751755e-06
0.222,-5.248127542101814e-06
0.223,-5.891749585375902e-06
0.224,-5.917781821781216e-06
0.225,-6.812379995486468e-06
0.226,-7.473284414023154e-06
0.227,-7.611056675345771e-06
0.228,-7.847955425491548e-06
0.229,-9.314579515085312e-06
0.23,-8.1447870326841e-06
0.231,-8.469700883490986e-06
0.232,-1.0311784498749948e-05
0.233,-1.1279983915298989e-05
0.234,-1.1166779776860508e-05
0.235,-1.0947696991544192e-05
0.236,-1.418342722844494e-05
0.237,-1.5224293529802019e-05
0.238,-1.5216397233971966e-05
0.239,-1.7108500582020286e-05
0.24,-1.8258563489437582e-05
0.241,-1.9138895285668028e-05
0.242,-2.0039097902787184e-05
0.243,-1.966633306463256e-05
0.244,-1.87428853154557e-05
0.245,-1.8301442926571098e-05
0.246,-1.9378904212754577e-05
0.247,-1.8709771295177842e-05
0.248,-1.622027128652626e-05
0.249,-1.5724229522111424e-05
0.25,-1.722142643102787e-05
0.251,-1.9898745005775575e-05
0.252,-1.8333929066656363e-05
0.253,-1.6401305351227255e-05
0.254,-1.657845535662022e-05
0.255,-1.675262141578985e-05
0.256,-1.86256349579525e-05
0.257,-1.9316368900252135e-05
0.258,-1.6060110757396983e-05
0.259,-1.470476702278265e-05
0.26,-1.4904359362825815e-05
0.261,-1.4410767249912701e-05
0.262,-1.4465024450414862e-05
0.263,-1.3089623891829644e-05
0.264,-1.1883194796153466e-05
0.265,-1.1418594096589942e-05
0.266,-1.1944946129651114e-05
0.267,-1.0893547657774267e-05
0.268,-1.0586926952879702e-05
0.269,-1.0649808238697533e-05
0.27,-1.082037660243705e-05
0.271,-1.3160126858830713e-05
0.272,-1.3160738038654835e-05
0.273,-1.1346825352338282e-05
0.274,-9.474024649185468e-06
0.275,-8.522569061615293e-06
0.276,-8.387213852738182e-06
0.277,-8.364942695378168e-06
0.278,-6.842252860529527e-06
0.279,-6.383906622622292e-06
0.28,-5.024832965372064e-06
0.281,-2.766395265902701e-06
0.282,-3.5775776230520338e-06
0.283,-4.2008874049983845e-06
0.284,-5.562042836516894e-06
0.285,-6.781927504278268e-06
0.286,-7.688942500114385e-06
0.287,-6.229828714936753e-06
0.288,-5.277277396171267e-06
0.289,-7.733158909954516e-06
0.29,-7.92689736473372e-06
0.291,-8.809291869500873e-06
0.292,-1.0242810658598681e-05
0.293,-1.1489946197560036e-05
0.294,-1.2201527589557066e-05
0.295,-1.2306891450966041e-05
0.296,-1.5107512805453572e-05
0.297,-1.6775141244632782e-05
0.298,-1.645476373112125e-05
0.299,-1.8171940135416693e-05
0.3,-1.9043355415340083e-05
0.301,-1.9788916049410664e-05
0.302,-2.1143470754303442e-05
0.303,-2.176629613461248e-05
0.304,-2.1846846482993977e-05
0.305,-2.140586516940734e-05
0.306,-2.159169604822954e-05
0.307,-2.2272397343383324e-05
0.308,-2.452492440526356e-05
0.309,-2.3823104992438838e-05
0.31,-2.1726308557701035e-05
0.311,-2.3470582200071956e-05
0.312,-2.6163613106446573e-05
0.313,-2.6384249070330035e-05
0.314,-2.5886568327287947e-05
0.315,-2.6707758477016376e-05
0.316,-2.687846055415441e-05
0.317,-2.7033855732326376e-05
0.318,-2.762367871805842e-05
0.319,-2.961954661483224e-05
0.32,-2.861845896291056e-05
0.321,-2.614197498975557e-05
0.322,-2.7531299312893333e-05
0.323,-2.713918713465643e-05
0.324,-2.452010215722941e-05
0.325,-2.3420339379677907e-05
0.326,-2.336981556368127e-05
0.327,-2.3076935332027268e-05
0.328,-2.3627410768058097e-05
0.329,-2.268723609957977e-05
0.33,-2.2509309759837112e-05
0.331,-2.4642572333347516e-05
0.332,-2.4442094832232332e-05
0.333,-2.157838008455313e-05
0.334,-1.8844259860438175e-05
0.335,-1.9358162436275602e-05
0.336,-1.7163125102446436e-05
0.337,-1.5821634567318755e-05
0.338,-1.7607077964122076e-05
0.339,-1.589316200490979e-05
0.34,-1.414301182451362e-05
0.341,-1.2999734453697047e-05
0.342,-1.2080010970921853e-05
0.343,-1.1371800953643137e-05
0.344,-1.1136580455925089e-05
0.345,-1.1415798135216589e-05
0.346,-1.1440543668337411e-05
0.347,-1.1342891454852974e-05
0.348,-1.1667098372190377e-05
0.349,-1.0978844573086969e-05
0.35,-1.1071010702831738e-05
0.351,-1.1665035277967806e-05
0.352,-1.100760401553692e-05
0.353,-1.136317453340595e-05
0.354,-1.1003513656174562e-05
0.355,-1.0895911537426107e-05
0.356,-1.139195797178875e-05
0.357,-1.0918685464355376e-05
0.358,-1.1573513342161853e-05
0.359,-1.2323826517486971e-05
0.36,-1.2711287543478734e-05
0.361,-1.436022891538448e-05
0.362,-1.4688824263687382e-05
0.363,-1.3921295475315565e-05
0.364,-1.4599247868570052e-05
0.365,-1.4990362919446604e-05
0.366,-1.5293094938898222e-05
0.367,-1.5236647311108718e-05
0.368,-1.5176244715317953e-05
0.369,-1.5084452263615372e-05
0.37,-1.4739904530268209e-05
0.371,-1.5815201127240788e-05
0.372,-1.6365840306931558e-05
0.373,-1.6921882320190244e-05
0.374,-1.868359107392264e-05
0.375,-1.9121668640508892e-05
0.376,-1.9981974488991275e-05
0.377,-2.1293924979772207e-05
0.378,-2.198120820360447e-05
0.379,-2.5873111267840134e-05
0.38,-2.681469185183665e-05
0.381,-2.7274239555059366e-05
0.382,-2.644692719093263e-05
0.383,-2.325417201637485e-05
0.384,-2.4138911146205548e-05
0.385,-2.3557634661765394e-05
0.386,-2.337051369535472e-05
0.387,-2.253123337854109e-05
0.388,-2.3678152782886067e-05
0.389,-2.4728168782558453e-05
0.39,-2.3974202000066093e-05
0.391,-2.5886627757373484e-05
0.392,-2.611834066509282e-05
0.393,-2.6812569944270537e-05
0.394,-2.6712143609178502e-05
0.395,-2.676869693322338e-05
0.396,-2.7850362024206155e-05
0.397,-2.8146749087766122e-05
0.398,-2.6370487339548504e-05
0.399,-2.6055157403146425e-05
0.4,-2.6450024800929562e-05
0.401,-2.4012482927873523e-05
0.402,-2.3099455473850158e-05
0.403,-2.575914135534284e-05
0.404,-2.702439321572129e-05
0.405,-2.080872345941716e-05
0.406,-1.8205482249480068e-05
0.407,-2.0990226045479807e-05
0.408,-2.132577991082397e-05
0.409,-2.166907523578308e-05
0.41,-2.1278583003242764e-05
0.411,-2.0921100208574825e-05
0.412,-2.0976789347708738e-05
0.413,-2.1041690403970306e-05
0.414,-2.1127365594469435e-05
0.415,-2.055782469518853e-05
0.416,-1.9664332237168404e-05
0.417,-1.9079043450741172e-05
0.418,-1.8528598598485507e-05
0.419,-1.8628797813167047e-05
0.42,-1.6981284737532122e-05
0.421,-1.597282143765328e-05
0.422,-1.75772977721952e-05
0.423,-1.7060158580032345e-05
0.424,-1.4984527004160694e-05
0.425,-1.4618017475550127e-05
0.426,-1.5439112559240895e-05
0.427,-1.4742041993874278e-05
0.428,-1.4439338063222119e-05
0.429,-1.2861609712145514e-05
0.43,-1.055451857356779e-05
0.431,-1.007338242652438e-05
0.432,-9.376205239596534e-06
0.433,-8.216179292014041e-06
0.434,-8.134786196903427e-06
0.435,-8.356528795702006e-06
0.436,-9.486071556579933e-06
0.437,-1.0508194817163497e-05
0.438,-9.190537372925499e-06
0.439,-1.0488680201764687e-05
0.44,-1.1552776731825831e-05
0.441,-9.434714582423747e-06
0.442,-9.8947321256506e-06
0.443,-1.1506517335257467e-05
0.444,-1.1460067263929688e-05
0.445,-1.1861942872534669e-05
0.446,-1.113295911563849e-05
0.447,-1.0303741079252636e-05
0.448,-1.1808893967994559e-05
0.449,-1.2780730828226078e-05
0.45,-1.2543549566661738e-05
0.451,-1.3109345856914262e-05
0.452,-1.4275610073189395e-05
0.453,-1.3425523494967679e-05
0.454,-1.633049418900483e-05
0.455,-1.825461383884206e-05
0.456,-1.7960327279251637e-05
0.457,-2.0514428754739917e-05
0.458,-1.919345730278458e-05
0.459,-1.998766153555411e-05
0.46,-2.1102923941617607e-05
0.461,-2.076034146388956e-05
0.462,-2.1793505431854003e-05
0.463,-2.1843858268993277e-05
0.464,-2.0754778304732e-05
0.465,-2.0065219278663988e-05
0.466,-2.080378502255508e-05
0.467,-2.2284047922726987e-05
0.468,-2.410173596749395e-05
0.469,-2.5834146940379928e-05
0.47,-2.724183985110242e-05
0.471,-2.8172347760898228e-05
0.472,-3.0565395441817905e-05
0.473,-3.215892440031533e-05
0.474,-3.0295148599139284e-05
0.475,-2.93258933932817e-05
0.476,-3.0516598925899585e-05
0.477,-3.124857515411597e-05
0.478,-3.031934671163243e-05
0.479,-3.004118514839468e-05
0.48,-2.9438157572315454e-05
0.481,-2.7842193916858677e-05
0.482,-2.738876921161311e-05
0.483,-2.481280366329044e-05
0.484,-2.4645306052589205e-05
0.485,-2.3811140364610417e-05
0.486,-2.0528105857422577e-05
0.487,-1.8907316003772314e-05
0.488,-1.8054671607939984e-05
0.489,-1.6173074073671783e-05
0.49,-1.4164935477356572e-05
0.491,-1.4234522686191578e-05
0.492,-1.0189722924148499e-05
0.493,-9.442927864766161e-06
0.494,-8.410884515571036e-06
0.495,-5.9135307002641584e-06
0.496,-7.271995902679903e-06
0.497,-5.206081358656713e-06
0.498,-3.6316181205669778e-06
0.499,-5.5581271011073e-06
0.5,-4.98716807076704e-06
0.501,-3.5116711687943392e-06
0.502,-3.016408328008466e-06
0.503,-2.1796024710289817e-06
0.504,-1.7755117917908443e-06
0.505,-1.377687231892179e-06
0.506,-1.5625026722699558e-06
0.507,-2.1251300724544968e-07
0.508,6.807887111367949e-07
0.509,1.7151696419164088e-06
0.51,1.3770433665923787e-06
0.511,-4.5787718112324516e-07
0.512,8.772553400437533e-07
0.513,3.0432044228272692e-06
0.514,6.298025438485848e-06
0.515,8.100615255552894e-06
0.516,7.3140074545250045e-06
0.517,6.808036691825953e-06
0.518,7.461099857664537e-06
0.519,6.5608824971715e-06
0.52,5.804075441790757e-06
0.521,5.1952550756707356e-06
0.522,2.8452183851627116e-06
0.523,1.369132500452959e-06
0.524,-3.1513330966079574e-07
0.525,-3.2881792473991307e-06
0.526,-6.4295447245094785e-06
0.527,-9.117416939366322e-06
0.528,-1.162767955339687e-05
0.529,-1.263255108030026e-05
0.53,-1.549917304548507e-05
0.531,-1.9788559773255537e-05
0.532,-2.3055302596201604e-05
0.533,-2.614833002809427e-05
0.534,-2.891287234475028e-05
0.535,-3.129358507575525e-05
0.536,-3.323858001821866e-05
0.537,-3.5203927180979733e-05
0.538,-3.615805797171649e-05
0.539,-3.7285444105468884e-05
0.54,-3.7888962707204625e-05
0.541,-3.8490486987373786e-05
0.542,-3.822945036167896e-05
0.543,-3.7859393511209354e-05
0.544,-3.764278246212835e-05
0.545,-3.684464050921422e-05
0.546,-3.692572837313467e-05
0.547,-3.713610362613204e-05
0.548,-3.6509873258966175e-05
0.549,-3.6761819762241124e-05
0.55,-3.898634619633511e-05
0.551,-3.845888028621432e-05
0.552,-3.623954429699047e-05
0.553,-3.657858476722485e-05
0.554,-3.782281106909755e-05
0.555,-3.762215245197646e-05
0.556,-3.773543300493584e-05
0.557,-3.613458712613163e-05
0.558,-3.5606778606808046e-05
0.559,-3.695420987277166e-05
0.56,-3.399176615364208e-05
0.561,-3.2342977639815284e-05
0.562,-2.9735048020104294e-05
0.563,-2.659384717320103e-05
0.564,-2.323977323791104e-05
0.565,-2.068525040094012e-05
0.566,-2.0434361975404208e-05
0.567,-1.6784762781158146e-05
0.568,-1.4131624643913763e-05
0.569,-1.0973005182189033e-05
0.57,-6.7157517445175376e-06
0.571,-5.580906519059198e-06
0.572,-4.307593204076455e-06
0.573,-2.654543668680722e-06
0.574,-5.987427268494453e-07
0.575,1.468914279170963e-06
0.576,4.050604095771314e-06
0.577,7.250431829232265e-06
0.578,9.384072825559014e-06
0.579,9.587940646246724e-06
0.58,8.82663048050639e-06
0.581,8.197579950919089e-06
0.582,7.83224116314799e-06
0.583,7.993519840332951e-06
0.584,5.669742723523287e-06
0.585,2.0658887813511386e-06
0.586,8.931925597265952e-07
0.587,-4.4155674002483995e-07
0.588,-2.6456716764071756e-06
0.589,-4.447998453001303e-06
0.59,-6.9032813271070795e-06
0.591,-8.493070628170511e-06
0.592,-1.0123287167875596e-05
0.593,-1.2519028650097192e-05
0.594,-1.3717575786312315e-05
0.595,-1.516077126314057e-05
0.596,-1.7487972320454813e-05
0.597,-1.873061602404367e-05
0.598,-2.01091138925611e-05
0.599,-2.2732363401262053e-05
0.6,-2.4599698983459993e-05
0.601,-2.7304680998610698e-05
0.602,-3.033980750120429e-05
0.603,-3.240108224076643e-05
0.604,-3.489140833238095e-05
0.605,-3.7321994856342344e-05
0.606,-4.00113275841776e-05
0.607,-4.2881704893494016e-05
0.608,-4.625380065193975e-05
0.609,-4.874010960779842e-05
0.61,-5.173838979124117e-05
0.611,-5.5126294004076564e-05
0.612,-5.8758261207530115e-05
0.613,-6.196543348559862e-05
0.614,-6.355892070746423e-05
0.615,-6.533622198781656e-05
0.616,-6.589011213276501e-05
0.617,-6.551889359223709e-05
0.618,-6.343666749839478e-05
0.619,-6.208223382080425e-05
0.62,-5.922540107747048e-05
0.621,-5.476984669356278e-05
0.622,-5.0152165369528045e-05
0.623,-4.3637297596904506e-05
0.624,-3.7411056348281514e-05
0.625,-3.0070883321536892e-05
0.626,-2.301620065299497e-05
0.627,-1.663974177452639e-05
0.628,-9.221042952540088e-06
0.629,-1.02288763327138e-06
0.63,5.70901751164678e-06
0.631,1.3443408703082846e-05
0.632,2.265864791961432e-05
0.633,2.8236861877377063e-05
0.634,3.385834301616302e-05
0.635,3.949745649292079e-05
0.636,4.312101437790999e-05
0.637,4.618961908492217e-05
0.638,4.706191747432568e-05
0.639,4.8801138556377386e-05
0.64,5.178280832292842e-05
0.641,5.31022295668433e-05
0.642,5.3480240593279596e-05
0.643,5.3665945668479954e-05
0.644,5.1535521898385464e-05
0.645,4.688679305371251e-05
0.646,4.1329931413977084e-05
0.647,3.6375298149408885e-05
0.648,3.2919955371032686e-05
0.649,3.0434690199208337e-05
0.65,3.1553426298182865e-05
0.651,3.3066646243038214e-05
0.652,3.3219938819583775e-05
0.653,3.381809018730063e-05
0.654,3.513435890272293e-05
0.655,3.442382957829188e-05
0.656,3.1439142999407835e-05
0.657,3.474654540016091e-05
0.658,3.504014382242483e-05
0.659,3.0752509966288714e-05
0.66,2.9960305513885967e-05
0.661,2.7384328419136325e-05
0.662,2.1384191915374614e-05
0.663,1.8248621775082236e-05
0.664,1.488297378723929e-05
0.665,7.195937708716177e-06
0.666,3.987450478368917e-06
0.667,-9.60417184078928e-07
0.668,-5.6883683625214655e-06
0.669,-9.060068631778523e-06
0.67,-1.3757894564954082e-05
0.671,-1.967525812875981e-05
0.672,-2.750708751546853e-05
0.673,-3.3640345543974615e-05
0.674,-4.094645448741179e-05
0.675,-4.5877172193136934e-05
0.676,-5.136487997661816e-05
0.677,-5.502749154972703e-05
0.678,-5.777739521597549e-05
0.679,-6.243312798746832e-05
0.68,-6.493196695436259e-05
0.681,-6.834139570778238e-05
0.682,-7.096750224603868e-05
0.683,-7.045877801453017e-05
0.684,-7.010445356746427e-05
0.685,-6.942732201854337e-05
0.686,-6.937183957868697e-05
0.687,-7.038902126539135e-05
0.688,-6.942015410784737e-05
0.689,-6.968154968315984e-05
0.69,-6.865242032739277e-05
0.691,-6.786750975589474e-05
0.692,-6.971540989618833e-05
0.693,-7.124266093569729e-05
0.694,-7.25628915545295e-05
0.695,-7.306954199025795e-05
0.696,-7.445023426629654e-05
0.697,-7.51006836485168e-05
0.698,-7.393620551566737e-05
0.699,-7.209933156952318e-05
0.7,-7.126272998474515e-05
0.701,-7.112741205882508e-05
0.702,-6.851697318470531e-05
0.703,-6.476923347923749e-05
0.704,-6.06270134848708e-05
0.705,-5.71298450099724e-05
0.706,-5.360816949221645e-05
0.707,-4.948106153804875e-05
0.708,-4.425782341960967e-05
0.709,-3.934304691900012e-05
0.71,-3.554406145229381e-05
0.711,-2.957919959055765e-05
0.712,-2.5085099151849923e-05
0.713,-2.2521365094975682e-05
0.714,-1.927132146212847e-05
0.715,-1.4238229088513916e-05
0.716,-8.337123012023075e-06
0.717,-5.283204744866074e-06
0.718,-4.878376396970264e-06
0.719,-3.597912968660705e-06
0.72,-7.793612184088555e-07
0.721,-2.0155049032829527e-06
0.722,-2.9526793228501605e-06
0.723,-1.0949367639258468e-06
0.724,-2.6136807500705603e-06
0.725,-4.861541878328798e-06
0.726,-4.888598427532032e-06
0.727,-7.858661393991204e-06
0.728,-1.1163311927217191e-05
0.729,-1.0031709041812262e-05
0.73,-1.2534828430487366e-05
0.731,-1.6183649596922783e-05
0.732,-1.5621743317636296e-05
0.733,-1.7513575667825407e-05
0.734,-1.923049964005097e-05
0.735,-2.073674456782866e-05
0.736,-2.3177681141409357e-05
0.737,-2.2172239456666037e-05
0.738,-2.2310652538004935e-05
0.739,-2.5357801201042077e-05
0.74,-2.55614929263728e-05
0.741,-2.4364171185473334e-05
0.742,-2.7615959767933503e-05
0.743,-3.098669786438133e-05
0.744,-2.9674759778836875e-05
0.745,-2.8410959500283125e-05
0.746,-2.9056636289952165e-05
0.747,-2.9195976515483124e-05
0.748,-2.9323595051934698e-05
0.749,-3.0029219498211304e-05
0.75,-3.228185734927206e-05
0.751,-3.4615989459522765e-05
0.752,-3.49220911284251e-05
0.753,-3.614316810435785e-05
0.754,-3.847810172546191e-05
0.755,-4.05915636167675e-05
0.756,-4.402924765738359e-05
0.757,-4.423633492907972e-05
0.758,-4.2676588007936534e-05
0.759,-4.534934744108868e-05
0.76,-4.600199659312692e-05
0.761,-4.483612666876096e-05
0.762,-4.420656842649849e-05
0.763,-4.141351545279335e-05
0.764,-3.67889812848339e-05
0.765,-3.237965156253661e-05
0.766,-3.09286871308224e-05
0.767,-2.925913074673734e-05
0.768,-2.67612581585441e-05
0.769,-2.4085547758983554e-05
0.77,-2.3242031255013252e-05
0.771,-2.1805777998110063e-05
0.772,-1.952731881259675e-05
0.773,-1.914608037098371e-05
0.774,-1.8304491647604616e-05
0.775,-1.6760399373815542e-05
0.776,-1.5795786685246954e-05
0.777,-1.4020463720018362e-05
0.778,-1.3870275764364251e-05
0.779,-1.2800307327873534e-05
0.78,-8.474395746823794e-06
0.781,-8.452869911483032e-06
0.782,-8.180702660955147e-06
0.783,-7.178168551964271e-06
0.784,-7.635652599061114e-06
0.785,-7.3135380456934136e-06
0.786,-6.7472341443891224e-06
0.787,-6.5565338104133625e-06
0.788,-8.357760841568235e-06
0.789,-7.576697694085746e-06
0.79,-7.960153913269825e-06
0.791,-8.684262060486945e-06
0.792,-7.358132717425265e-06
0.793,-8.52227067818713e-06
0.794,-7.94202152997184e-06
0.795,-7.397136814644098e-06
0.796,-7.369180822114288e-06
0.797,-6.828847914475409e-06
0.798,-6.825259686377368e-06
0.799,-7.178967455131844e-06
0.8,-7.579756044883213e-06
0.801,-7.889535492281892e-06
0.802,-8.749753764891367e-06
0.803,-9.292008555525065e-06
0.804,-1.1450005762050041e-05
0.805,-1.3770794859711256e-05
0.806,-1.5223343218234742e-05
0.807,-1.660297041767219e-05
0.808,-1.8030873060620725e-05
0.809,-2.0048811851252066e-05
0.81,-1.890986498023872e-05
0.811,-1.776683544068306e-05
0.812,-1.7060319487454968e-05
0.813,-1.9808527290557355e-05
0.814,-2.3200678760932288e-05
0.815,-2.289521982380486e-05
0.816,-2.5223311000107325e-05
0.817,-2.7597161249487518e-05
0.818,-2.9621960780338148e-05
0.819,-3.030954314602261e-05
0.82,-3.059158420432175e-05
0.821,-3.233017941293427e-05
0.822,-3.2724029267282276e-05
0.823,-2.9009145172825058e-05
0.824,-2.735385593154165e-05
0.825,-2.834880865930739e-05
0.826,-2.689346943333837e-05
0.827,-2.6481206179117097e-05
0.828,-2.7185284424046908e-05
0.829,-2.7147983526652295e-05
0.83,-2.6274564497570388e-05
0.831,-2.6133065187815397e-05
0.832,-2.4659984059071045e-05
0.833,-2.5070985369459627e-05
0.834,-2.6574964201856432e-05
0.835,-2.728927579263862e-05
0.836,-2.7853744967408873e-05
0.837,-2.6441257946062865e-05
0.838,-2.546327042397477e-05
0.839,-2.3369358025022023e-05
0.84,-2.1040862319225742e-05
0.841,-1.8579601200289553e-05
0.842,-1.739337278502813e-05
0.843,-1.708046889040487e-05
0.844,-1.4415553424704594e-05
0.845,-1.2939034047342224e-05
0.846,-1.2551501474234782e-05
0.847,-1.3214020173798478e-05
0.848,-1.4654153406360154e-05
0.849,-1.3676736735608498e-05
0.85,-1.3177712289869803e-05
0.851,-1.3358907736824055e-05
0.852,-1.2841550803341635e-05
0.853,-1.2176559896509505e-05
0.854,-1.085019738227552e-05
0.855,-9.684421921949251e-06
0.856,-8.432107270201925e-06
0.857,-6.468074337521106e-06
0.858,-5.2774896871254145e-06
0.859,-3.9435260618751324e-06
0.86,-2.0362125238536443e-06
0.861,-8.04127707513068e-07
0.862,2.299371188779438e-07
0.863,2.368905470324427e-06
0.864,3.3372251422383283e-06
0.865,7.735072448577668e-07
0.866,1.0214184458646908e-06
0.867,2.2204746693540387e-06
0.868,2.4983285887676874e-06
0.869,3.465824796696161e-06
0.87,3.015576175531689e-06
0.871,3.324185048904241e-06
0.872,3.3576011797283357e-06
0.873,3.4785810910658286e-06
0.874,2.754875093176745e-06
0.875,2.366671723504933e-06
0.876,1.9119844488531934e-06
0.877,-9.095948438764546e-08
0.878,-4.04741251750862e-07
0.879,-7.770101062284541e-07
0.88,-6.472603170971786e-07
0.881,-2.054990185633915e-06
0.882,-8.478918340787678e-07
0.883,3.0112640448322767e-06
0.884,1.6401441436591641e-06
0.885,-2.1645553000784137e-06
0.886,-4.525290652498823e-06
0.887,-4.579018961174422e-06
0.888,-2.2705680164696623e-06
0.889,4.5480512821186596e-07
0.89,-2.416056115764537e-07
0.891,-8.865965491185985e-07
0.892,-1.4921679810499052e-06
0.893,-2.155511592263093e-06
0.894,-2.4617602911764072e-06
0.895,-2.688903040031596e-06
0.896,-2.613890180503445e-06
0.897,-2.5187506263231576e-06
0.898,-2.4955450599621843e-06
0.899,-2.849187606490816e-06
0.9,-1.0975462606234999e-06
0.901,-1.168715033363349e-06
0.902,-2.9585630457089067e-07
0.903,-8.104544909846357e-07
0.904,-2.635126774423763e-06
0.905,-3.977251247932523e-06
0.906,-5.924576959474929e-06
0.907,-5.0436882920174345e-06
0.908,-5.4817545235086976e-06
0.909,-5.7714753568378525e-06
0.91,-6.038618555974931e-06
0.911,-6.311119489636131e-06
0.912,-7.128442936438059e-06
0.913,-9.449838215700334e-06
0.914,-9.660260809118052e-06
0.915,-8.17306482842929e-06
0.916,-7.629039029482688e-06
0.917,-5.191891598863975e-06
0.918,-2.408034435233408e-07
0.919,3.3891214823509597e-07
0.92,9.657460886159154e-07
0.921,4.671164750368094e-06
0.922,5.506791471159523e-06
0.923,5.148687289101282e-06
0.924,4.2982582345285756e-06
0.925,2.8798106930571333e-06
0.926,3.3352508300686086e-06
0.927,4.71680864151382e-06
0.928,4.778907731570043e-06
0.929,4.270368124724183e-06
0.93,5.628018658558495e-06
0.931,6.072532123463526e-06
0.932,5.606926803285279e-06
0.933,5.517762935371537e-06
0.934,3.478666418457946e-06
0.935,3.555493325334129e-06
0.936,5.712251068353738e-06
0.937,6.816838243427244e-06
0.938,7.645754816806654e-06
0.939,8.787145088861489e-06
0.94,9.241828248739057e-06
0.941,8.422295764189844e-06
0.942,8.549960056290926e-06
0.943,8.351179990417189e-06
0.944,8.15273373329351e-06
0.945,8.477443608306114e-06
0.946,8.240584044095837e-06
0.947,8.64754221066961e-06
0.948,9.592983139556469e-06
0.949,8.961534772677265e-06
0.95,5.429790836522114e-06
0.951,6.469261775699647e-06
0.952,8.74980661338322e-06
0.953,6.94305898764224e-06
0.954,6.325413270655567e-06
0.955,5.080245380343598e-06
0.956,4.199184397733254e-06
0.957,4.382399717453226e-06
0.958,3.6380005699276743e-06
0.959,2.580742535146216e-06
0.96,2.2302893975878244e-06
0.961,1.0092874028271692e-06
0.962,1.4147947771878875e-07
0.963,-6.49968419585062e-07
0.964,-1.64382315502625e-06
0.965,-2.3217802915989287e-06
0.966,-3.2691074211883372e-06
0.967,-5.574972351069432e-06
0.968,-6.632503477242319e-06
0.969,-6.33862403012257e-06
0.97,-7.993688208655789e-06
0.971,-9.400934029200481e-06
0.972,-9.465762236464934e-06
0.973,-1.0494857046622786e-05
0.974,-1.3995183005805784e-05
0.975,-1.537291905221625e-05
0.976,-1.303241913983487e-05
0.977,-1.237531032276334e-05
0.978,-1.289984644156313e-05
0.979,-1.1500623424939536e-05
0.98,-1.4568729499834738e-05
0.981,-1.7792353449974887e-05
0.982,-1.665781360942916e-05
0.983,-1.535090935550103e-05
0.984,-1.4158446124239285e-05
0.985,-1.666975377477334e-05
0.986,-1.337801265363225e-05
0.987,-1.1581223653599304e-05
0.988,-1.5682704714115364e-05
0.989,-1.669105900213854e-05
0.99,-1.701962892899303e-05
0.991,-1.6385513747635938e-05
0.992,-1.580827654479065e-05
0.993,-1.4508492011263219e-05
0.994,-1.4606286967534557e-05
0.995,-1.4020003657170044e-05
0.996,-1.256507798559995e-05
0.997,-1.1753180633169474e-05
0.998,-1.2591628452723284e-05
0.999,-1.3583045370534842e-05
1.0,-1.2425241279904651e-05
1.001,-1.2411284638230144e-05
1.002,-1.0929765317161105e-05
1.003,-1.0265270457953787e-05
1.004,-1.0499117308377172e-05
1.005,-9.810393242770697e-06
1.006,-9.377337192124549e-06
1.007,-1.0279056210010582e-05
1.008,-1.0597509561963686e-05
1.009,-9.619620172206809e-06
1.01,-9.039303662316222e-06
1.011,-7.559154786285358e-06
1.012,-7.691514864700905e-06
1.013,-7.258672445484806e-06
1.014,-6.492026251749415e-06
1.015,-6.1301590755557265e-06
1.016,-5.615919324970367e-06
1.017,-5.292761905309995e-06
1.018,-4.000736474783652e-06
1.019,-1.7726035653476192e-06
1.02,-1.9305871613888433e-06
1.021,-2.6842246326194717e-06
1.022,-2.3296518320574353e-06
1.023,-2.9504759422975023e-06
1.024,-3.720166146982673e-06
1.025,-3.0056655372196192e-06
1.026,-2.1717331543625124e-06
1.027,-4.785396280222106e-06
1.028,-7.21985492707511e-06
1.029,-6.657244446196655e-06
1.03,-7.489823568130376e-06
1.031,-8.219392952627406e-06
1.032,-7.755028643421332e-06
1.033,-1.1509492189866804e-05
1.034,-1.4394909233164555e-05
1.035,-1.4818451266276518e-05
1.036,-1.5178783744892178e-05
1.037,-1.6663948021757908e-05
1.038,-1.6851134955927427e-05
1.039,-1.5308513921185403e-05
1.04,-1.499894680114719e-05
1.041,-1.648509526117843e-05
1.042,-1.773517394827588e-05
1.043,-1.7528456393230224e-05
1.044,-1.9459632114031434e-05
1.045,-1.9041249203405544e-05
1.046,-1.7903739848803022e-05
1.047,-1.9092878970680446e-05
1.048,-1.7564915073982117e-05
1.049,-1.5179976754640573e-05
1.05,-1.729463970144447e-05
1.051,-1.9354690982549256e-05
1.052,-1.8989123102922835e-05
1.053,-1.820622742015937e-05
1.054,-1.9192357978470504e-05
1.055,-2.1413547667992008e-05
1.056,-2.241973893908948e-05
1.057,-2.185100677030089e-05
1.058,-2.3044862864727174e-05
1.059,-2.4543582878240244e-05
1.06,-2.510051611188553e-05
1.061,-2.5284516309936096e-05
1.062,-2.5481943648226137e-05
1.063,-2.5796080854932126e-05
1.064,-2.2944216621455507e-05
1.065,-2.2153010232218314e-05
1.066,-2.325300414168981e-05
1.067,-2.307325552093491e-05
1.068,-2.333699782573348e-05
1.069,-2.3059030905873198e-05
1.07,-2.264521034827046e-05
1.071,-2.179402026350227e-05
1.072,-2.1699835106488678e-05
1.073,-2.135717055818762e-05
1.074,-2.0465043789177628e-05
1.075,-1.9930540956773802e-05
1.076,-1.917082904040283e-05
1.077,-1.691312674245246e-05
1.078,-1.549251776236416e-05
1.079,-1.5747885728804804e-05
1.08,-1.5116604470584986e-05
1.081,-1.4328867492656907e-05
1.082,-1.4002641026391708e-05
1.083,-1.454015552974654e-05
1.084,-1.4326619674474499e-05
1.085,-1.3531485205947607e-05
1.086,-1.321216915898768e-05
1.087,-1.2219722676805515e-05
1.088,-1.2705594472573765e-05
1.089,-1.4328431458908476e-05
1.09,-1.2859826891719225e-05
1.091,-1.3888076420656354e-05
1.092,-1.6219312894316178e-05
1.093,-1.5875812337124396e-05
1.094,-1.4591727329507582e-05
1.095,-1.3406932975812397e-05
1.096,-1.5259992261319183e-05
1.097,-1.4281406308093794e-05
1.098,-1.4088281754351058e-05
1.099,-1.4381324862635399e-05
1.1,-1.4044694401944452e-05
1.101,-1.5648773638144537e-05
1.102,-1.3555433261380218e-05
1.103,-1.3924932973424016e-05
1.104,-1.5823321265880615e-05
1.105,-1.5829090418244815e-05
1.106,-1.4037946413435723e-05
1.107,-1.3664846900025169e-05
1.108,-1.4642898254673035e-05
1.109,-1.351921444145458e-05
1.11,-1.2048341964013859e-05
1.111,-1.0484263796263855e-05
1.112,-1.0372242367857097e-05
1.113,-1.1641805131510284e-05
1.114,-1.2902006898334119e-05
1.115,-1.473974699631863e-05
1.116,-1.5721433400112857e-05
1.117,-1.5197749106906514e-05
1.118,-1.711077590589852e-05
1.119,-1.800234947407892e-05
1.12,-1.832232043843746e-05
1.121,-1.8335412019313212e-05
1.122,-1.8325594149704152e-05
1.123,-1.949729946560218e-05
1.124,-1.787332207716411e-05
1.125,-1.5989781083368834e-05
1.126,-1.6689008547777953e-05
1.127,-1.8911557586872323e-05
1.128,-1.9788665123163195e-05
1.129,-2.0136422983198517e-05
1.13,-2.1252623901363484e-05
1.131,-1.9916803199191965e-05
1.132,-1.869346620523139e-05
1.133,-2.113796358758207e-05
1.134,-2.3104038842249286e-05
1.135,-2.3351796348271994e-05
1.136,-2.455476983034633e-05
1.137,-2.3704920498231185e-05
1.138,-2.4014736138984355e-05
1.139,-2.4616079734686436e-05
1.14,-2.125596920094802e-05
1.141,-1.988997004341128e-05
1.142,-2.017426735324501e-05
1.143,-2.035768942416811e-05
1.144,-2.0174949254735553e-05
1.145,-1.9142154697763548e-05
1.146,-2.055525044428175e-05
1.147,-2.2991561440528522e-05
1.148,-2.3114091281332918e-05
1.149,-2.3577777562665e-05
1.15,-2.3236594850797294e-05
1.151,-2.2850276623028272e-05
1.152,-2.288951939566227e-05
1.153,-2.353881857739123e-05
1.154,-2.4896516670176878e-05
1.155,-2.3572145992545202e-05
1.156,-2.3781633796438778e-05
1.157,-2.3841323734912197e-05
1.158,-2.4061987128138686e-05
1.159,-2.5544011549480706e-05
1.16,-2.4274758936373333e-05
1.161,-2.3028712417651016e-05
1.162,-2.2070542525879568e-05
1.163,-2.166070177630266e-05
1.164,-2.0362690485695668e-05
1.165,-2.1350806415591236e-05
1.166,-2.0717054553624976e-05
1.167,-1.7375977337720474e-05
1.168,-1.656645955220146e-05
1.169,-1.5950020548530608e-05
1.17,-1.4005656148077978e-05
1.171,-1.0721844541899287e-05
1.172,-1.0986794519944022e-05
1.173,-1.0278313970379201e-05
1.174,-8.454761705118792e-06
1.175,-7.848400923470206e-06
1.176,-7.162119989844977e-06
1.177,-6.16998144353789e-06
1.178,-6.821483751815732e-06
1.179,-8.548864279827556e-06
1.18,-8.976324802973818e-06
1.181,-8.529793213750487e-06
1.182,-7.84578806746584e-06
1.183,-1.0678131477068316e-05
1.184,-1.2501629174010649e-05
1.185,-1.2012341592778562e-05
1.186,-1.1124623107066677e-05
1.187,-1.1065617578477117e-05
1.188,-8.968284636322192e-06
1.189,-9.464231465960246e-06
1.19,-1.2477609491393901e-05
1.191,-1.1921110240445675e-05
1.192,-1.349470047980162e-05
1.193,-1.158724152137274e-05
1.194,-1.0580625530624742e-05
1.195,-1.1855618706419022e-05
1.196,-1.1798300957905034e-05
1.197,-1.1505883290985743e-05
1.198,-1.0290784218061467e-05
1.199,-9.78213689089289e-06
1.2,-1.0224329528637449e-05
1.201,-1.0372680267569555e-05
1.202,-1.0586830305331954e-05
1.203,-1.0222825963649816e-05
1.204,-9.52508748112936e-06
1.205,-1.1819493449882399e-05
1.206,-1.3108641172772162e-05
1.207,-1.4570004342781666e-05
1.208,-1.745725773552484e-05
1.209,-1.9304549502961983e-05
1.21,-2.3733055859936253e-05
1.211,-2.485882288372541e-05
1.212,-2.4900737924500268e-05
1.213,-2.9587502093481297e-05
1.214,-3.206268645056485e-05
1.215,-3.228730841765115e-05
1.216,-3.2239798758774056e-05
1.217,-3.261366786816551e-05
1.218,-3.221354821182997e-05
1.219,-3.385052588500626e-05
1.22,-3.583774027532789e-05
1.221,-3.4487118558682766e-05
1.222,-3.28078440731492e-05
1.223,-3.1906784318033225e-05
1.224,-3.099069341364766e-05
1.225,-2.9369629721467106e-05
1.226,-2.7460759849889177e-05
1.227,-2.6491605079256882e-05
1.228,-2.420184804839643e-05
1.229,-2.1943048120921395e-05
1.23,-2.2375975247391794e-05
1.231,-2.0465703019497737e-05
1.232,-1.7775027580885128e-05
1.233,-1.6557125289130268e-05
1.234,-1.524856603132326e-05
1.235,-1.4263821518378978e-05
1.236,-1.3992239430200737e-05
1.237,-1.3098117681716518e-05
1.238,-1.172405965767864e-05
1.239,-1.3597292726989868e-05
1.24,-1.543816908776823e-05
1.241,-1.2469715872708552e-05
1.242,-1.0326919226457584e-05
1.243,-1.1064446604051386e-05
1.244,-1.076173232407414e-05
1.245,-9.524740417936104e-06
1.246,-7.8842156779361e-06
1.247,-4.290760467226369e-06
1.248,-2.3075481489631854e-06
1.249,-2.901829074631334e-06
1.25,-1.9365475127687264e-06
1.251,-6.633424700642543e-07
1.252,1.7820399218340478e-06
1.253,3.081299974829509e-06
1.254,3.43198124651046e-06
1.255,5.6431019807712635e-06
1.256,8.228858985056619e-06
1.257,9.601549570032523e-06
1.258,9.064978169425822e-06
1.259,9.709530295815692e-06
1.26,1.0509822292406696e-05
1.261,1.1325415855933574e-05
1.262,1.1004589253771233e-05
1.263,1.0290662003388573e-05
1.264,1.1629954924647274e-05
1.265,9.680197757203654e-06
1.266,7.6181130705692715e-06
1.267,5.345019134930189e-06
1.268,6.895856109166057e-07
1.269,-1.2927034132536708e-06
1.27,-2.923341678963226e-06
1.271,-9.107341770106156e-06
1.272,-1.4341634883638867e-05
1.273,-1.6824198560043343e-05
1.274,-2.046271650961022e-05
1.275,-2.4081689838561693e-05
1.276,-2.6427190316163185e-05
1.277,-2.8568825820618535e-05
1.278,-3.1098912195779754e-05
1.279,-3.242924603951113e-05
1.28,-3.3586187412579454e-05
1.281,-3.44049443698533e-05
1.282,-3.372398008079e-05
1.283,-3.4380341818719616e-05
1.284,-3.380646767479521e-05
1.285,-3.272870909425025e-05
1.286,-3.496747343166422e-05
1.287,-3.783859930953532e-05
1.288,-3.7955377738560515e-05
1.289,-3.753055516249651e-05
1.29,-3.8177709679919835e-05
1.291,-3.8711563961321005e-05
1.292,-3.9147052635364176e-05
1.293,-3.959724904677556e-05
1.294,-3.977052209337835e-05
1.295,-3.936748865555849e-05
1.296,-4.04784144858779e-05
1.297,-3.918167942175185e-05
1.298,-3.824376693109965e-05
1.299,-3.94209901905134e-05
1.3,-3.8862870647039085e-05
1.301,-3.871679284491128e-05
1.302,-3.77333235307571e-05
1.303,-3.767144664375753e-05
1.304,-3.8602954768331305e-05
1.305,-3.3715356368689277e-05
1.306,-2.971288842461788e-05
1.307,-2.881552803225131e-05
1.308,-2.7356222818556788e-05
1.309,-2.6176852615063273e-05
1.31,-2.6823642554936224e-05
1.311,-2.344283309541075e-05
1.312,-1.3877358243219748e-05
1.313,-1.0165095892086096e-05
1.314,-1.053896302648692e-05
1.315,-7.028781372297732e-06
1.316,-4.164494372493366e-06
1.317,-2.480033745160071e-06
1.318,9.830358748923658e-07
1.319,3.872989297480561e-06
1.32,6.62729274385566e-06
1.321,8.774325141040322e-06
1.322,1.013758448210313e-05
1.323,1.1642076978804864e-05
1.324,1.2622190737888934e-05
1.325,1.3930046327709278e-05
1.326,1.3543146710973364e-05
1.327,1.3570151050880082e-05
1.328,1.2053777388044186e-05
1.329,8.67017724782654e-06
1.33,6.92457533161357e-06
1.331,1.5434660191667255e-06
1.332,-3.6358666030711655e-06
1.333,-4.977356764660368e-06
1.334,-5.758312971454711e-06
1.335,-8.080295258643746e-06
1.336,-1.0977433899645809e-05
1.337,-1.2621229839379172e-05
1.338,-1.3421325281018887e-05
1.339,-1.462224545275067e-05
1.34,-1.669661718011917e-05
1.341,-1.7535796050252332e-05
1.342,-1.8039123633483494e-05
1.343,-1.9303152188821524e-05
1.344,-2.1212105249982513e-05
1.345,-2.2730604326264328e-05
1.346,-2.4499324702426625e-05
1.347,-2.8333804681475483e-05
1.348,-3.1226188871133545e-05
1.349,-3.474930198911233e-05
1.35,-3.89621786338757e-05
1.351,-4.281605105748665e-05
1.352,-4.7459832125452386e-05
1.353,-5.224431082519792e-05
1.354,-5.582456777871902e-05
1.355,-5.886046765813355e-05
1.356,-6.251543649713121e-05
1.357,-6.405402898556591e-05
1.358,-6.493898890072457e-05
1.359,-6.672857711650337e-05
1.36,-6.717487941287475e-05
1.361,-6.672362521006068e-05
1.362,-6.541578132413557e-05
1.363,-6.409087733195466e-05
1.364,-6.189172148189285e-05
1.365,-5.816992538521184e-05
1.366,-5.3991508463363494e-05
1.367,-4.894181977966784e-05
1.368,-4.332909721679365e-05
1.369,-3.818616544464836e-05
1.37,-3.227002326461056e-05
1.371,-2.5159346895021586e-05
1.372,-1.7350195378780203e-05
1.373,-8.250409054779846e-06
1.374,1.2266857793866399e-06
1.375,9.868626155980204e-06
1.376,1.8669641129770025e-05
1.377,2.7035524293335924e-05
1.378,3.4187297611137784e-05
1.379,4.04636061458732e-05
1.38,4.132195002427696e-05
1.381,4.253897402001542e-05
1.382,4.701008054088024e-05
1.383,4.974860682515093e-05
1.384,5.26847240889905e-05
1.385,5.556409904673172e-05
1.386,5.4946237332631465e-05
1.387,5.300233551513489e-05
1.388,5.201243004970404e-05
1.389,4.626166363180484e-05
1.39,4.013559401551731e-05
1.391,3.8914634521446494e-05
1.392,3.82679129353359e-05
1.393,3.524703088113774e-05
1.394,3.14803603779029e-05
1.395,3.076859302782485e-05
1.396,3.2782235017987316e-05
1.397,3.776160783023431e-05
1.398,4.011967807900994e-05
1.399,3.9347725828322204e-05
1.4,3.912350936566088e-05
1.401,3.902124509692118e-05
1.402,3.832244504648197e-05
1.403,3.67264862071296e-05
1.404,3.615975689313186e-05
1.405,3.258234742265017e-05
1.406,2.6991516195343068e-05
1.407,2.2321536591323832e-05
1.408,1.813996676754329e-05
1.409,1.264082430717045e-05
1.41,7.135529490332856e-06
1.411,1.4427502342151331e-06
1.412,-4.321600879369387e-06
1.413,-1.1153019724931869e-05
1.414,-1.7864732572180164e-05
1.415,-2.2891055625598608e-05
1.416,-2.928759488156413e-05
1.417,-3.602854427424941e-05
1.418,-4.100175062498108e-05
1.419,-4.390251992863809e-05
1.42,-4.982729633297304e-05
1.421,-5.606833000457002e-05
1.422,-6.03102655505023e-05
1.423,-6.112925656006126e-05
1.424,-6.229479307552211e-05
1.425,-6.497398027411622e-05
1.426,-6.60375958604687e-05
1.427,-7.216694274090932e-05
1.428,-7.766034992526536e-05
1.429,-7.813818397253559e-05
1.43,-7.594541575592005e-05
1.431,-7.57511173240879e-05
1.432,-7.484469377812859e-05
1.433,-7.552912313626476e-05
1.434,-7.681191526631508e-05
1.435,-7.289484565073886e-05
1.436,-7.246372120302846e-05
1.437,-7.327946464338352e-05
1.438,-7.367165705974923e-05
1.439,-7.263537647750093e-05
1.44,-7.183175664020933e-05
1.441,-7.159222314157082e-05
1.442,-7.202590846964682e-05
1.443,-7.212936537121164e-05
1.444,-7.0297439280877e-05
1.445,-6.983405663695986e-05
1.446,-6.7161745181126e-05
1.447,-6.592890998631319e-05
1.448,-6.481420985437354e-05
1.449,-6.002776336511576e-05
1.45,-5.630930621278965e-05
1.451,-5.1623767529113884e-05
1.452,-4.6754988582128275e-05
1.453,-4.1798444456460156e-05
1.454,-3.635383928093434e-05
1.455,-3.1418339008089406e-05
1.456,-2.6381010061035233e-05
1.457,-2.111878605915437e-05
1.458,-1.7494031473468514e-05
1.459,-1.4453550810244648e-05
1.46,-1.0628735940894075e-05
1.461,-7.23646989060951e-06
1.462,-4.580414390188184e-06
1.463,-2.8523873909130776e-06
1.464,-1.833660451203123e-06
1.465,-1.6961428666276203e-06
1.466,-1.2035377740015785e-06
1.467,-1.1126290723100979e-06
1.468,-1.874871238939438e-06
1.469,-1.9384046213223817e-06
1.47,-3.3505177170016692e-06
1.471,-5.460447733096091e-06
1.472,-7.522280623122886e-06
1.473,-9.197612299250792e-06
1.474,-1.1557589479044604e-05
1.475,-1.3883977335366815e-05
1.476,-1.4069004042489756e-05
1.477,-1.711389724749551e-05
1.478,-1.9526229356995912e-05
1.479,-2.041639334487363e-05
1.48,-2.2193701471349525e-05
1.481,-2.3662702222733492e-05
1.482,-2.292032198660245e-05
1.483,-2.265434800870889e-05
1.484,-2.6643585547490275e-05
1.485,-2.8959768988596435e-05
1.486,-3.267102155413413e-05
1.487,-3.414638645019933e-05
1.488,-3.1660739701894834e-05
1.489,-3.409928031250824e-05
1.49,-3.61608016835806e-05
1.491,-3.725908574112392e-05
1.492,-3.812201366757898e-05
1.493,-3.688832106468731e-05
1.494,-3.780229259126602e-05
1.495,-3.800703579501904e-05
1.496,-3.8537241021273225e-05
1.497,-4.0612478527892316e-05
1.498,-4.143207689855391e-05
1.499,-4.1272462245448204e-05
1.5,-4.2287533084150746e-05
1.501,-4.471224064225069e-05
1.502,-4.376909481752048e-05
1.503,-4.167688667887896e-05
1.504,-4.136057297343111e-05
1.505,-4.1461059654644466e-05
1.506,-4.084358429718595e-05
1.507,-3.9703541450377754e-05
1.508,-3.7568904317138015e-05
1.509,-3.469883017355532e-05
1.51,-3.267853654846861e-05
1.511,-3.101103102297842e-05
1.512,-2.9106700050394524e-05
1.513,-2.667205181974226e-05
1.514,-2.3899023882398676e-05
1.515,-2.2656191602126497e-05
1.516,-2.0182958981944857e-05
1.517,-1.738741492170349e-05
1.518,-1.674805138227817e-05
1.519,-1.651903307539091e-05
1.52,-1.58382510190554e-05
1.521,-1.3937046501118684e-05
1.522,-1.1650302913378817e-05
1.523,-8.4255929729122e-06
1.524,-8.530234905870314e-06
1.525,-8.655425590604563e-06
1.526,-8.517033851720001e-06
1.527,-7.953092864475956e-06
1.528,-4.2184631206428366e-06
1.529,-4.677488342951515e-06
1.53,-3.6956915150822993e-06
1.531,-2.6316317343768713e-06
1.532,-2.5299621103907315e-06
1.533,-4.165133612777743e-07
1.534,-1.7959140400319818e-06
1.535,-4.151895207149034e-06
1.536,-4.250067798536786e-06
1.537,-5.342654188113738e-06
1.538,-7.174440199627293e-06
1.539,-7.089113213686055e-06
1.54,-8.035171243856677e-06
1.541,-9.870714625044057e-06
1.542,-1.166663950859362e-05
1.543,-1.0308004479604212e-05
1.544,-8.493598746021879e-06
1.545,-1.0333965786615087e-05
1.546,-1.2548301530809276e-05
1.547,-1.416073432416179e-05
1.548,-1.4996501676743347e-05
1.549,-1.5878475278611304e-05
1.55,-1.6724370119992835e-05
1.551,-1.784483077497409e-05
1.552,-1.9242444182418643e-05
1.553,-2.051160645882224e-05
1.554,-2.253908740415959e-05
1.555,-2.550509746380877e-05
1.556,-2.5984665758013643e-05
1.557,-2.624917423925879e-05
1.558,-2.77679467398145e-05
1.559,-2.8309845580963623e-05
1.56,-2.9444867404358496e-05
1.561,-3.064574380296569e-05
1.562,-3.0989537952415216e-05
1.563,-3.115918999922591e-05
1.564,-3.184491214137981e-05
1.565,-3.184528402025091e-05
1.566,-3.1667866173410896e-05
1.567,-3.152914748458461e-05
1.568,-3.0853680059306636e-05
1.569,-3.087233255018816e-05
1.57,-3.111970324605409e-05
1.571,-3.0830862364129373e-05
1.572,-3.0037718798331526e-05
1.573,-2.976540788915488e-05
1.574,-3.01291531389992e-05
1.575,-3.0132051177944555e-05
1.576,-2.9364159065678047e-05
1.577,-2.9303129698390252e-05
1.578,-2.811645845652099e-05
1.579,-2.636519483926074e-05
1.58,-2.6908765050228203e-05
1.581,-2.7810375478373525e-05
1.582,-2.3842350225288216e-05
1.583,-2.0890718793690897e-05
1.584,-2.265842298857669e-05
1.585,-2.1466652930046575e-05
1.586,-1.9154036263720982e-05
1.587,-1.5873666681342346e-05
1.588,-1.6488234504099802e-05
1.589,-1.536377677214616e-05
1.59,-1.1762762103661943e-05
1.591,-1.2137338118818846e-05
1.592,-9.523578626107869e-06
1.593,-8.13746947001832e-06
1.594,-7.073175574266893e-06
1.595,-6.803860145675057e-06
1.596,-5.285013544753442e-06
1.597,-5.159933530728439e-06
1.598,-8.76672113355438e-06
1.599,-6.8459537867238295e-06
1.6,-4.848097041561588e-06
1.601,-3.3397329107673027e-06
1.602,-2.4078165636115287e-06
1.603,-5.161408605639031e-06
1.604,-5.430639138159657e-06
1.605,-3.0630040258637265e-06
1.606,-1.9174300946200554e-06
1.607,-1.1568315605968175e-06
1.608,-6.400779820383188e-07
1.609,-1.1143782268361391e-06
1.61,-1.0904330521456628e-07
1.611,-1.3142721981974203e-07
1.612,-1.0655785879536733e-06
1.613,-7.737993317856858e-07
1.614,-2.2009421422497034e-06
1.615,-3.1809316888539546e-06
1.616,-3.7447098934485155e-06
1.617,-4.228619789953961e-06
1.618,-3.982180083895905e-06
1.619,-4.474272485702705e-06
1.62,-3.296958307438347e-06
1.621,-2.466435700111727e-06
1.622,-2.421007133395714e-06
1.623,-2.316302673434573e-06
1.624,-3.6183500693789007e-06
1.625,-5.295353048154791e-06
1.626,-3.2091995174551027e-06
1.627,3.922491918643356e-07
1.628,-1.3188579680563916e-06
1.629,-2.2468254717258496e-06
1.63,-3.471726485797289e-06
1.631,-6.551608965417716e-06
1.632,-8.027266657588295e-06
1.633,-7.128931702274666e-06
1.634,-8.084017381851488e-06
1.635,-8.824929725025522e-06
1.636,-1.019598782163459e-05
1.637,-1.2858639502574554e-05
1.638,-1.0194408935656042e-05
1.639,-1.1205329217099352e-05
1.64,-1.3011951085737562e-05
1.641,-1.1549331195147617e-05
1.642,-1.036164734111975e-05
1.643,-8.896231789973961e-06
1.644,-9.397840734792026e-06
1.645,-1.1003888680040175e-05
1.646,-1.1441188970021554e-05
1.647,-1.0224487502262675e-05
1.648,-7.556796621502302e-06
1.649,-5.031273552867832e-06
1.65,-6.234181630706857e-06
1.651,-7.948351994399752e-06
1.652,-6.756542863606188e-06
1.653,-5.744171027963538e-06
1.654,-6.401048068871857e-06
1.655,-7.321961798667438e-06
1.656,-6.806163868254048e-06
1.657,-5.65601896006052e-06
1.658,-4.675206543488562e-06
1.659,-3.866921036137111e-06
1.66,-3.63248332993374e-06
1.661,-2.6706647708197805e-06
1.662,-1.8778567657772372e-06
1.663,-1.0490282381091698e-06
1.664,-1.6792363287299002e-06
1.665,-5.653276835805507e-07
1.666,-1.0741414809120331e-07
1.667,5.902602362940161e-07
1.668,3.0193285315880207e-06
1.669,2.6682761775239985e-06
1.67,3.324264249200939e-06
1.671,3.3754849918133e-06
1.672,3.4135858605919864e-06
1.673,3.935632240881697e-06
1.674,3.745113719558686e-06
1.675,4.251635216080318e-06
1.676,4.069154574693562e-06
1.677,5.012897792222456e-06
1.678,6.395355899810716e-06
1.679,7.621993744326002e-06
1.68,7.887435393409874e-06
1.681,7.57290150571752e-06
1.682,9.145548121231276e-06
1.683,1.1260104189204448e-05
1.684,1.2362859587660021e-05
1.685,1.219766758360412e-05
1.686,1.1113257615417712e-05
1.687,1.147086891217731e-05
1.688,1.1751066247394968e-05
1.689,1.015862052506185e-05
1.69,8.324537604890577e-06
1.691,6.50467883160261e-06
1.692,5.774889235323068e-06
1.693,5.023066674490801e-06
1.694,3.3390888041635747e-06
1.695,1.303887421151223e-06
1.696,3.791578847424537e-07
1.697,-1.400824222124572e-06
1.698,-1.8340437251283996e-06
1.699,1.4856047755533175e-07
1.7,2.867851794240428e-07
1.701,2.498849300803341e-06
1.702,3.492104127636077e-06
1.703,4.753352270854355e-07
1.704,2.7096437339189374e-07
1.705,1.5254441587482904e-06
1.706,5.163740215612292e-07
1.707,-3.344676377927078e-06
1.708,-4.414037243404489e-06
1.709,-3.1222238287961474e-06
1.71,-5.4837149708021025e-06
1.711,-8.30879320074003e-06
1.712,-1.0315716334015876e-05
1.713,-1.184145034355247e-05
1.714,-1.2749418701549173e-05
1.715,-1.1333180600980436e-05
1.716,-1.1015569978308651e-05
1.717,-1.3943514155265711e-05
1.718,-1.4479399670926435e-05
1.719,-1.219036380581464e-05
1.72,-1.1637185232705672e-05
1.721,-1.3864481820830453e-05
1.722,-1.2893694366843585e-05
1.723,-1.3619879799897306e-05
1.724,-1.5412729412379896e-05
1.725,-1.3321563747427524e-05
1.726,-1.4583440947631382e-05
1.727,-1.5233046058766045e-05
1.728,-1.4912777445507203e-05
1.729,-1.6081450122038937e-05
1.73,-1.59202902512289e-05
1.731,-1.533535589458278e-05
1.732,-1.4756109084250936e-05
1.733,-1.383048619058216e-05
1.734,-1.2917366068631154e-05
1.735,-1.2477729787303252e-05
1.736,-1.2065980028847558e-05
1.737,-1.1522817546433455e-05
1.738,-1.007077215687356e-05
1.739,-8.313010193917796e-06
1.74,-8.335471344753432e-06
1.741,-8.111822252267805e-06
1.742,-7.510247527680509e-06
1.743,-6.500808665758306e-06
1.744,-5.762035020708076e-06
1.745,-6.0855773341659456e-06
1.746,-6.278122417526331e-06
1.747,-5.260272204812864e-06
1.748,-4.862643022864931e-06
1.749,-5.519944990981653e-06
1.75,-5.86416880318556e-06
1.751,-6.7181731557435124e-06
1.752,-5.490900877418675e-06
1.753,-5.47516554258748e-06
1.754,-7.4484916637711e-06
1.755,-6.576939565562559e-06
1.756,-5.021296902477079e-06
1.757,-5.544569341251078e-06
1.758,-6.219434031259289e-06
1.759,-3.3342818710915833e-06
1.76,-2.4966797303502516e-06
1.761,-1.2335013823712548e-06
1.762,-3.875383546446155e-07
1.763,-3.0110152921334645e-06
1.764,-3.3569940905488e-06
1.765,-3.6700592199881645e-06
1.766,-3.5778591909808257e-06
1.767,-4.6849985385170065e-06
1.768,-4.9704372411845555e-06
1.769,-5.889009885686387e-06
1.77,-6.577010867566198e-06
1.771,-7.161112563063131e-06
1.772,-9.669303509947899e-06
1.773,-8.642152016039489e-06
1.774,-8.442585445121858e-06
1.775,-9.662552389506385e-06
1.776,-1.1425382216909874e-05
1.777,-1.3283307553607739e-05
1.778,-1.0510369080779625e-05
1.779,-8.291658986337921e-06
1.78,-9.610460649907148e-06
1.781,-1.0635208837444724e-05
1.782,-1.1008264417475293e-05
1.783,-1.0938254882402952e-05
1.784,-1.2097211201287177e-05
1.785,-1.4023012036825095e-05
1.786,-1.6426839878358533e-05
1.787,-1.6704586635528388e-05
1.788,-1.6350539644088897e-05
1.789,-2.0771328836924177e-05
1.79,-2.289807756834717e-05
1.791,-2.2894979349419996e-05
1.792,-2.3463076186149148e-05
1.793,-2.4138753578781338e-05
1.794,-2.508727554883199e-05
1.795,-2.2692432871738724e-05
1.796,-2.0343951576042404e-05
1.797,-1.9524618083169022e-05
1.798,-1.9099076313391764e-05
1.799,-1.930594480153569e-05
1.8,-1.8954341356983436e-05
1.801,-1.7825182004820435e-05
1.802,-1.667685737437626e-05
1.803,-1.6954206228270393e-05
1.804,-1.8099210740937593e-05
1.805,-1.7261607768136734e-05
1.806,-1.570767704576739e-05
1.807,-1.6425814660771655e-05
1.808,-1.6828066468211573e-05
1.809,-1.6847484858860638e-05
1.81,-1.5931868389566802e-05
1.811,-1.4335032866348846e-05
1.812,-1.5007149510350666e-05
1.813,-1.4285810606902289e-05
1.814,-1.3089329538401476e-05
1.815,-1.3013380604482791e-05
1.816,-1.2231505439471164e-05
1.817,-1.2499356369952652e-05
1.818,-1.4061923394515048e-05
1.819,-1.416250418173338e-05
1.82,-1.4151904860259421e-05
1.821,-1.469634550521929e-05
1.822,-1.0982786435045545e-05
1.823,-8.820845117002316e-06
1.824,-1.09410591087592e-05
1.825,-8.18986736151898e-06
1.826,-4.622225736972949e-06
1.827,-3.393151813824961e-06
1.828,-4.5496469481343725e-06
1.829,-5.524347152718029e-06
1.83,-3.731928296866077e-06
1.831,-3.868793875416523e-06
1.832,-4.215992232182693e-06
1.833,-4.444745312088028e-06
1.834,-5.1235198118272235e-06
1.835,-5.325310965781143e-06
1.836,-5.433783048256103e-06
1.837,-4.947122541497545e-06
1.838,-5.478872571409344e-06
1.839,-3.955559105242941e-06
1.84,-2.9114969532755066e-06
1.841,-3.7816771458732996e-06
1.842,-2.693997937242272e-06
1.843,-2.5622465849881234e-06
1.844,-3.7811417869773187e-06
1.845,-3.924421858705617e-06
1.846,-5.646464614888235e-06
1.847,-6.3873343391708796e-06
1.848,-5.680567812660995e-06
1.849,-6.762533012752562e-06
1.85,-8.781901580258419e-06
1.851,-9.40771970670821e-06
1.852,-1.0134753009607739e-05
1.853,-9.585189742473837e-06
1.854,-9.706347940093368e-06
1.855,-8.664655378350741e-06
1.856,-7.33675594725689e-06
1.857,-1.0499048001359332e-05
1.858,-9.917207043374277e-06
1.859,-8.93724777565906e-06
1.86,-9.179439790293224e-06
1.861,-8.135946828459241e-06
1.862,-8.872483861227009e-06
1.863,-1.0033671787788123e-05
1.864,-1.2251213965981882e-05
1.865,-1.2653608952679686e-05
1.866,-1.4175911923525287e-05
1.867,-1.526809109372979e-05
1.868,-1.4900784637062847e-05
1.869,-1.6167701789590334e-05
1.87,-1.5084455054399576e-05
1.871,-1.808416962487029e-05
1.872,-1.9810701937162704e-05
1.873,-1.7610636478689353e-05
1.874,-1.7725369533717496e-05
1.875,-1.7484514760167963e-05
1.876,-1.8101597746245688e-05
1.877,-1.8072595285092415e-05
1.878,-1.8077392092262446e-05
1.879,-2.0483754409763772e-05
1.88,-2.265303330875808e-05
1.881,-2.1446570441763214e-05
1.882,-1.93317190349882e-05
1.883,-1.8686515470106853e-05
1.884,-1.9402313805372446e-05
1.885,-1.958407416921689e-05
1.886,-1.8448408192390696e-05
1.887,-1.701985947899188e-05
1.888,-1.6226172513063795e-05
1.889,-1.589343655539172e-05
1.89,-1.504196509180641e-05
1.891,-1.5283597256554468e-05
1.892,-1.5420821492913396e-05
1.893,-1.604777773049264e-05
1.894,-1.6852854899710018e-05
1.895,-1.4422325099253165e-05
1.896,-1.154429045774205e-05
1.897,-1.271218913400768e-05
1.898,-1.332721375836609e-05
1.899,-1.3499215596260678e-05
1.9,-1.264595812933012e-05
1.901,-9.190890585466976e-06
1.902,-6.659879690295635e-06
1.903,-6.477519385933789e-06
1.904,-6.263702805108965e-06
1.905,-4.931079317939994e-06
1.906,-6.783845644733201e-06
1.907,-3.118067371296682e-06
1.908,-8.234427574533452e-07
1.909,-2.986156449004631e-06
1.91,-9.922741217081859e-07
1.911,-5.310349220515029e-07
1.912,-4.97422737398312e-07
1.913,-1.1935343633061244e-06
1.914,-1.828486942909085e-06
1.915,-2.916877692815476e-06
1.916,-1.6760770517590826e-06
1.917,2.7714603679232646e-07
1.918,-1.6996029996012852e-07
1.919,-7.233177589764585e-07
1.92,-8.803520680739974e-07
1.921,-2.982339445673915e-08
1.922,-5.532427108088947e-07
1.923,-2.02768663129512e-06
1.924,-2.1295757914962388e-06
1.925,-2.038806633562439e-06
1.926,-4.642553138749199e-06
1.927,-5.238095604643491e-06
1.928,-4.934180495396243e-06
1.929,-6.750643329836241e-06
1.93,-6.416296933617245e-06
1.931,-6.26535521949331e-06
1.932,-6.032884446942064e-06
1.933,-6.549914896716993e-06
1.934,-1.0138885751535357e-05
1.935,-1.1610031803451214e-05
1.936,-1.2659166841710046e-05
1.937,-1.5667103869994065e-05
1.938,-1.3900714077616664e-05
1.939,-1.6315404127253572e-05
1.94,-2.025861928576804e-05
1.941,-2.2573882023008113e-05
1.942,-2.5004861486574104e-05
1.943,-2.5499033129298124e-05
1.944,-2.7110610860118646e-05
1.945,-2.5702588514024073e-05
1.946,-2.454788197230862e-05
1.947,-2.6629689439770043e-05
1.948,-2.7041264771406237e-05
1.949,-2.558531847769824e-05
1.95,-2.607322697171087e-05
1.951,-2.5524157893687652e-05
1.952,-2.556413075929256e-05
1.953,-2.5624953081226656e-05
1.954,-2.384292487700162e-05
1.955,-2.295720359930013e-05
1.956,-2.1807770410956943e-05
1.957,-2.0833028738196785e-05
1.958,-1.9067178067677772e-05
1.959,-1.6437614221400377e-05
1.96,-1.3862684682092186e-05
1.961,-1.205015117262155e-05
1.962,-1.0596668335594424e-05
1.963,-9.6884766368831e-06
1.964,-9.103343029728902e-06
1.965,-7.813590096911782e-06
1.966,-6.989866871466158e-06
1.967,-6.705167755138886e-06
1.968,-5.738530544356569e-06
1.969,-4.677860228510691e-06
1.97,-4.421436285196387e-06
1.971,-4.0778548824095345e-06
1.972,-2.4644051297771184e-06
1.973,-9.041402191662052e-07
1.974,9.778650081517266e-07
1.975,4.158420868372682e-06
1.976,2.6195916283767725e-06
1.977,1.4508899202822195e-06
1.978,4.549840280510108e-06
1.979,3.6207235813863065e-06
1.98,4.071628814967297e-06
1.981,7.2102479192460104e-06
1.982,1.033909988636432e-05
1.983,1.425101683931142e-05
1.984,1.6625737580243492e-05
1.985,1.6728325286647156e-05
1.986,1.8809871158255314e-05
1.987,2.071060221647828e-05
1.988,1.7765132514096528e-05
1.989,1.8109243634290564e-05
1.99,1.75873109422958e-05
1.991,1.7559352647019885e-05
1.992,1.6806695070000096e-05
1.993,1.2635420344420573e-05
1.994,1.157706726517366e-05
1.995,6.286445556652723e-06
1.996,4.236837440138028e-06
1.997,3.713232701886145e-06
1.998,-2.9548445989291823e-07
1.999,-2.0043494026284344e-06
2.0,-5.339117546940423e-06
2.001,-8.941225208325465e-06
2.002,-1.2070394781577162e-05
2.003,-1.2604748129109403e-05
2.004,-1.3938677873283552e-05
2.005,-1.617905446264108e-05
2.006,-1.7640564328590098e-05
2.007,-1.9141047770117836e-05
2.008,-2.1397626229741835e-05
2.009,-2.3524195643210532e-05
2.01,-2.1930556942576572e-05
2.011,-2.2623113664343867e-05
2.012,-2.510675264509976e-05
2.013,-2.7187294135917383e-05
2.014,-2.6373793817550464e-05
2.015,-2.6280019554496544e-05
2.016,-2.8224602272942936e-05
2.017,-2.8529639998154723e-05
2.018,-2.8717864506361303e-05
2.019,-2.940879896596657e-05
2.02,-2.99145813444667e-05
2.021,-2.933625356350825e-05
2.022,-3.0361293086218685e-05
2.023,-3.0662991210806466e-05
2.024,-2.8601987554451233e-05
2.025,-2.742990287040923e-05
2.026,-2.789463692276868e-05
2.027,-2.844658252964666e-05
2.028,-2.944481028414348e-05
2.029,-2.9662240594746537e-05
2.03,-2.9788953184422797e-05
2.031,-2.8533071598248112e-05
2.032,-2.6519056299979044e-05
2.033,-2.3983678652132216e-05
2.034,-1.9870353894571757e-05
2.035,-1.8122811915186914e-05
2.036,-1.4779223946672647e-05
2.037,-1.2267851439417946e-05
2.038,-1.2505042634759509e-05
2.039,-1.0096007978154354e-05
2.04,-7.038320338843929e-06
2.041,-5.327590595760229e-06
2.042,-2.0643484568646066e-06
2.043,1.5391126330031812e-06
2.044,4.153237020628814e-06
2.045,6.62821358819602e-06
2.046,8.694290760811241e-06
2.047,1.0765694984047197e-05
2.048,1.1547866743492802e-05
2.049,1.3947167070886919e-05
2.05,1.5481758993562135e-05
2.051,1.4592109166618279e-05
2.052,1.5249532641239855e-05
2.053,1.4461428653839752e-05
2.054,1.307229800363739e-05
2.055,1.246022793132921e-05
2.056,9.629187736542489e-06
2.057,7.398095748259748e-06
2.058,7.288098856215864e-06
2.059,5.10977354654141e-06
2.06,4.551969351314126e-06
2.061,2.9737691663657806e-06
2.062,2.0057420441250558e-07
2.063,2.470741883698613e-08
2.064,-1.3897358610915145e-06
2.065,-2.1986738797739328e-06
2.066,-2.2678100847455125e-06
2.067,-2.461987120810633e-06
2.068,-4.535714670669211e-06
2.069,-5.626210300193751e-06
2.07,-8.549838147844749e-06
2.071,-1.5402250840350975e-05
2.072,-1.606193116907633e-05
2.073,-1.769629065617171e-05
2.074,-2.1569097942811254e-05
2.075,-2.3247839815055273e-05
2.076,-2.8809684380479264e-05
2.077,-3.23450028446686e-05
2.078,-3.315786098397459e-05
2.079,-3.606343455440976e-05
2.08,-3.938284217234166e-05
2.081,-4.123633472482256e-05
2.082,-4.433605952381888e-05
2.083,-4.7179686750254215e-05
2.084,-4.904603766174066e-05
2.085,-5.019351749227602e-05
2.086,-4.936169087931646e-05
2.087,-5.087582429352963e-05
2.088,-5.395374504838947e-05
2.089,-5.3914008440038354e-05
2.09,-5.2384180385612445e-05
2.091,-5.060805886961329e-05
2.092,-4.795086528371975e-05
2.093,-4.4601795595859384e-05
2.094,-4.0373765610126343e-05
2.095,-3.5600635724697234e-05
2.096,-3.0132580704377632e-05
2.097,-2.7130515515708022e-05
2.098,-1.986056083712922e-05
2.099,-9.189424535183053e-06
2.1,-1.08131347886051e-06
2.101,7.003373871735797e-06
2.102,1.4807719418003818e-05
2.103,2.277681968073066e-05
2.104,2.9255922732426776e-05
2.105,3.508899489896491e-05
2.106,4.101845790616342e-05
2.107,4.568659225530562e-05
2.108,4.8438743372203074e-05
2.109,5.072805935649247e-05
2.11,5.272110898387852e-05
2.111,5.290344869868266e-05
2.112,5.4184084094123234e-05
2.113,5.749783467665664e-05
2.114,5.7104858134078466e-05
2.115,5.588698700864377e-05
2.116,5.3041014740810334e-05
2.117,4.706956077255088e-05
2.118,4.307056337714204e-05
2.119,3.9926721973557554e-05
2.12,3.729628835838006e-05
2.121,3.430647027606432e-05
2.122,3.5450377501816964e-05
2.123,3.8387958977369035e-05
2.124,3.805082301074437e-05
2.125,3.935028737809743e-05
2.126,4.1487557317513256e-05
2.127,3.866464671124787e-05
2.128,3.4294584540942235e-05
2.129,3.300959480360568e-05
2.13,3.116627836560995e-05
2.131,2.9047303884720124e-05
2.132,2.695965469850057e-05
2.133,2.422999349088773e-05
2.134,2.039811592492971e-05
2.135,1.280970586901804e-05
2.136,1.010964407630053e-05
2.137,7.236958174905962e-06
2.138,2.122166404130248e-06
2.139,-1.6126804256858668e-06
2.14,-6.451438911105037e-06
2.141,-9.379416331976804e-06
2.142,-1.367796510690284e-05
2.143,-1.7619237218917566e-05
2.144,-2.2162179927563048e-05
2.145,-3.0450646648154895e-05
2.146,-3.7914146959227105e-05
2.147,-4.1071326954097714e-05
2.148,-4.4735827093571316e-05
2.149,-4.882378071640822e-05
2.15,-5.216195204047568e-05
2.151,-5.619540638426685e-05
2.152,-5.8993669382606374e-05
2.153,-6.0854550511302665e-05
2.154,-6.200513967560572e-05
2.155,-6.349987786580764e-05
2.156,-6.33159912432728e-05
2.157,-6.344690375024706e-05
2.158,-6.179446107396061e-05
2.159,-5.986088328395343e-05
2.16,-5.964131255155869e-05
2.161,-5.8817655924737644e-05
2.162,-5.865417826760722e-05
2.163,-5.799502399830474e-05
2.164,-5.706358593314381e-05
2.165,-5.646343564852007e-05
2.166,-5.668040850650362e-05
2.167,-5.568540632254398e-05
2.168,-5.593753212892866e-05
2.169,-5.7487280391639046e-05
2.17,-5.847963918398774e-05
2.171,-5.895708326464247e-05
2.172,-5.946251927793558e-05
2.173,-5.78422682422463e-05
2.174,-5.544913268141767e-05
2.175,-5.564550778378386e-05
2.176,-5.4006381731410036e-05
2.177,-5.192196077108341e-05
2.178,-4.7599581027125375e-05
2.179,-4.286455641824115e-05
2.18,-3.9259673320938364e-05
2.181,-3.5143175629038526e-05
2.182,-3.308527098441127e-05
2.183,-2.986340000771121e-05
2.184,-2.6356707975853316e-05
2.185,-2.0840305026518773e-05
2.186,-1.4679966143121013e-05
2.187,-1.292788863052381e-05
2.188,-1.1919992341863827e-05
2.189,-8.475034197774276e-06
2.19,-6.595546480019755e-06
2.191,-8.170340757858284e-06
2.192,-6.678091327109029e-06
2.193,-5.29136329000947e-06
2.194,-6.08040758126419e-06
2.195,-5.116117080072097e-06
2.196,-5.871713219455413e-06
2.197,-5.922981615151792e-06
2.198,-5.947155107032752e-06
2.199,-8.720804074681683e-06
2.2,-8.9172903278706e-06
2.201,-9.804436496429997e-06
2.202,-1.1843039214870756e-05
2.203,-1.468671394219052e-05
2.204,-1.8483325125887912e-05
2.205,-1.817796765985483e-05
2.206,-1.8217174279177385e-05
2.207,-1.975378007040777e-05
2.208,-2.135172330457535e-05
2.209,-2.3390029469276118e-05
2.21,-2.4765320238046073e-05
2.211,-2.6492396638928875e-05
2.212,-2.6902731661995605e-05
2.213,-2.5241023994884195e-05
2.214,-2.5760258107953688e-05
2.215,-2.70159370935683e-05
2.216,-2.6760266708831894e-05
2.217,-2.5737054295994073e-05
2.218,-2.507794915528119e-05
2.219,-2.6600417309170173e-05
2.22,-2.700755580971608e-05
2.221,-2.6289561106774364e-05
2.222,-2.6226423460059945e-05
2.223,-2.60912663154519e-05
2.224,-2.8553710308497427e-05
2.225,-3.1582719040862486e-05
2.226,-3.064855910605363e-05
2.227,-2.9323742900921553e-05
2.228,-2.9983071208393204e-05
2.229,-2.9803102954021728e-05
2.23,-2.936150903749272e-05
2.231,-2.993678867207642e-05
2.232,-3.040873445252449e-05
2.233,-2.8159843405451414e-05
2.234,-2.8877622523264645e-05
2.235,-3.015747903860705e-05
2.236,-2.790567222873598e-05
2.237,-2.5141682703640956e-05
2.238,-2.289935886559265e-05
2.239,-2.1026337720486323e-05
2.24,-1.9381492110668204e-05
2.241,-1.623048868774385e-05
2.242,-1.3339893209759713e-05
2.243,-1.1970567233017468e-05
2.244,-9.171302374852659e-06
2.245,-1.147369004003758e-05
2.246,-1.0489105460667218e-05
2.247,-6.60840434827415e-06
2.248,-6.004527121724998e-06
2.249,-3.837742307605836e-06
2.25,-4.662814117450708e-06
2.251,-5.137027346684696e-06
2.252,-4.127811072225998e-06
2.253,-4.318712089058645e-06
2.254,-5.012687830223139e-06
2.255,-4.432089313499922e-06
2.256,-3.5152277966025215e-06
2.257,-2.8099813026295538e-06
2.258,-1.3654059810146415e-06
2.259,-1.922684880617007e-06
2.26,-2.3069062298733396e-06
2.261,-2.3210805465344986e-06
2.262,-2.9434862388372808e-06
2.263,-2.928922180429573e-06
2.264,-2.6138219644422286e-06
2.265,-4.324548347357744e-06
2.266,-5.487642978181223e-06
2.267,-6.740448557586293e-06
2.268,-9.44041237833281e-06
2.269,-1.0371546168274182e-05
2.27,-1.1846936747050488e-05
2.271,-1.0406812098728501e-05
2.272,-9.112371938765121e-06
2.273,-9.636276918188076e-06
2.274,-9.451243381341635e-06
2.275,-1.0318517924750442e-05
2.276,-9.078050336061611e-06
2.277,-9.64193305852395e-06
2.278,-1.0492166874701492e-05
2.279,-1.0483125948529917e-05
2.28,-1.344834115278107e-05
2.281,-1.7210521787731383e-05
2.282,-1.789320773102619e-05
2.283,-1.6432175153011596e-05
2.284,-1.7684755610899448e-05
2.285,-1.7435566855392105e-05
2.286,-1.6997740234294478e-05
2.287,-1.9909468755143017e-05
2.288,-2.1526470194534817e-05
2.289,-2.1211633600031064e-05
2.29,-1.9523582807054786e-05
2.291,-1.830606896013986e-05
2.292,-1.8979964678184064e-05
2.293,-2.173919754174973e-05
2.294,-2.535130167576078e-05
2.295,-2.4062492885624345e-05
2.296,-2.26064143206724e-05
2.297,-2.381508333385779e-05
2.298,-2.3630200096707706e-05
2.299,-2.5012917641336775e-05
2.3,-2.375043251210407e-05
2.301,-2.0358292255639198e-05
2.302,-1.767804058797055e-05
2.303,-1.767061111216439e-05
2.304,-1.760660209868121e-05
2.305,-1.6155095187727963e-05
2.306,-1.4172928870528395e-05
2.307,-1.2196259699554442e-05
2.308,-1.463585203337919e-05
2.309,-1.4776896032230547e-05
2.31,-1.4183371786782673e-05
2.311,-1.370618790421142e-05
2.312,-1.2493660972917004e-05
2.313,-1.2402482778321409e-05
2.314,-1.0607219235146957e-05
2.315,-9.706619586315796e-06
2.316,-9.625549845660896e-06
2.317,-8.512112260887964e-06
2.318,-6.130346996737367e-06
2.319,-4.149691281951313e-06
2.32,-4.2329606619862075e-06
2.321,-4.024913152025232e-06
2.322,-2.1434050168064407e-06
2.323,-1.8747501673369402e-06
2.324,-1.8742159253111527e-06
2.325,-3.0717371013246927e-06
2.326,-2.882049468593066e-06
2.327,-4.176812936566368e-07
2.328,-1.3027281028323415e-06
2.329,-2.3851615630963357e-06
2.33,-2.4456225483645274e-06
2.331,-1.1011930940061449e-06
2.332,5.965543952250726e-07
2.333,1.369000526056402e-06
2.334,1.7222787121613474e-06
2.335,2.5615663191193343e-06
2.336,3.205573736444882e-06
2.337,2.2988846563363046e-06
2.338,3.2201352987170018e-06
2.339,4.18469070158101e-06
2.34,3.4413741859085987e-06
2.341,3.763784506141544e-06
2.342,4.0376321468963206e-06
2.343,2.246192068650155e-06
2.344,1.5629253647861802e-07
2.345,1.9071823544912978e-06
2.346,4.304151786335299e-06
2.347,5.6180004572348e-06
2.348,4.690476283700587e-06
2.349,3.944812656091592e-06
2.35,4.699632074676407e-06
2.351,9.839068077882485e-07
2.352,-6.49531264741455e-07
2.353,-4.142230860654524e-07
2.354,-2.1857504362696983e-06
2.355,-2.7036493224198546e-06
2.356,-9.793539427276268e-07
2.357,-6.089591296030696e-07
2.358,-5.288783970267365e-06
2.359,-8.631240065062272e-06
2.36,-7.478435319867912e-06
2.361,-5.611292267125702e-06
2.362,-4.552673388169543e-06
2.363,-3.0639691219224734e-06
2.364,-2.535660092570262e-06
2.365,-1.273340828171156e-06
2.366,-1.8142793113929413e-07
2.367,-1.4715053764953883e-07
2.368,1.7262667371106267e-07
2.369,-1.4033999034533813e-07
2.37,-1.1636237448731825e-06
2.371,-2.1385624871213457e-06
2.372,-2.6804050232139304e-06
2.373,-4.392473396509943e-06
2.374,-5.082005278718137e-06
2.375,-4.575083745441748e-06
2.376,-5.228230285164069e-06
2.377,-2.534801347427403e-06
2.378,-6.251949025459781e-07
2.379,-1.4608978559457254e-06
2.38,-1.4234187307193323e-06
2.381,-6.999862262106569e-07
2.382,6.315836294970568e-07
2.383,1.9163254108111275e-06
2.384,3.031634315545083e-06
2.385,1.5912752145532853e-06
2.386,9.432337241539093e-07
2.387,1.461772330961507e-06
2.388,1.435010106143723e-06
2.389,1.3500785243608289e-06
2.39,7.782986950169602e-07
2.391,-6.371858574657205e-07
2.392,4.107022743532321e-07
2.393,2.9908468239293954e-06
2.394,3.03790671501446e-06
2.395,5.461720937690527e-06
2.396,8.760608121295078e-06
2.397,1.0836397385382415e-05
2.398,1.1508763886923907e-05
2.399,1.1626578484138794e-05
2.4,1.2074490234215542e-05
2.401,1.4073755868843542e-05
2.402,1.467727839360247e-05
2.403,9.459760056418596e-06
2.404,8.504657968372039e-06
2.405,1.0390126441763088e-05
2.406,1.1276260194597683e-05
2.407,1.1395699800896495e-05
2.408,8.549071525772812e-06
2.409,9.305909588426751e-06
2.41,1.0710789390138253e-05
2.411,9.393539075418525e-06
2.412,9.081736324397496e-06
2.413,9.913344921982674e-06
2.414,1.2047356364925413e-05
2.415,1.1170669406091606e-05
2.416,9.600099382290342e-06
2.417,8.279245869691199e-06
2.418,6.470819568394845e-06
2.419,6.345790707684876e-06
2.42,4.2712450599228915e-06
2.421,3.3990342116670377e-06
2.422,4.85715336219232e-06
2.423,4.145301496611833e-06
2.424,3.3353584669744654e-06
2.425,3.7766743613256196e-06
2.426,4.20525058285555e-06
2.427,5.05523639660032e-06
2.428,3.370778579093657e-06
2.429,1.8162085445083978e-06
2.43,2.182838030207976e-06
2.431,9.121119881250334e-08
2.432,-1.911570354104637e-06
2.433,-3.6590024955702373e-06
2.434,-6.275612884200407e-06
2.435,-5.588924258940995e-06
2.436,-5.640940775815152e-06
2.437,-7.097232314571509e-06
2.438,-6.252094230760153e-06
2.439,-7.228916222297179e-06
2.44,-6.875693814009124e-06
2.441,-5.656426018426995e-06
2.442,-5.639828429411299e-06
2.443,-6.687238927365999e-06
2.444,-6.941729722616978e-06
2.445,-5.120242813433767e-06
2.446,-7.310069355349468e-06
2.447,-8.770279489576686e-06
2.448,-1.083789582873031e-05
2.449,-1.2737824809279927e-05
2.45,-1.0694942982480164e-05
2.451,-1.074638038523894e-05
2.452,-1.1952007388310912e-05
2.453,-1.2301419461717145e-05
2.454,-1.161627799481266e-05
2.455,-8.24761206139983e-06
2.456,-7.2684941994924215e-06
2.457,-8.76324223260048e-06
2.458,-8.614850492119111e-06
2.459,-7.892630388091669e-06
2.46,-6.942000016886244e-06
2.461,-6.678014579655692e-06
2.462,-6.683632189735728e-06
2.463,-6.112960704890157e-06
2.464,-4.598951028554065e-06
2.465,-5.064314693785647e-06
2.466,-5.2339557351661195e-06
2.467,-6.0469927131153735e-06
2.468,-6.266535516587006e-06
2.469,-4.685754028723944e-06
2.47,-4.329368261356382e-06
2.471,-2.150405125403243e-06
2.472,-1.5227913357004686e-06
2.473,-1.9309720634979933e-06
2.474,-9.581670236101584e-07
2.475,1.2496057388212273e-07
2.476,8.695594790987582e-07
2.477,1.0544709458791727e-06
2.478,1.7879849434302042e-06
2.479,2.005367657908902e-06
2.48,3.062692941316754e-06
2.481,1.428041164310255e-06
2.482,-1.0285244432436698e-06
2.483,-1.244677465337507e-06
2.484,-1.873839346653801e-06
2.485,-8.904076087399433e-07
2.486,-3.9160485231917177e-07
2.487,-2.6958957551516103e-06
2.488,-5.738440503652643e-06
2.489,-3.3644716755416585e-06
2.49,-1.0217375693554797e-06
2.491,-3.953217386381933e-06
2.492,-4.091184085551051e-06
2.493,-4.353401377206302e-06
2.494,-3.1418482781376117e-06
2.495,-2.543937487562019e-06
2.496,-4.735803550701471e-06
2.497,-5.086944057870714e-06
2.498,-6.8653429872150595e-06
2.499,-9.042205371559955e-06
2.5,-7.295575856561021e-06
2.501,-7.212366322192946e-06
2.502,-8.488629317621463e-06
2.503,-9.528227619574836e-06
2.504,-1.0440312082886018e-05
2.505,-1.0536188701636621e-05
2.506,-9.126208718490737e-06
2.507,-9.117251548050254e-06
2.508,-1.241120863398136e-05
2.509,-1.2904652635536737e-05
2.51,-1.4389635039194921e-05
2.511,-1.4555341613255826e-05
2.512,-1.4090186910410652e-05
2.513,-1.5583870363882437e-05
2.514,-1.5428954048606e-05
2.515,-1.4921644600237645e-05
2.516,-1.516164261601164e-05
2.517,-1.6451125740531504e-05
2.518,-1.6293117213017986e-05
2.519,-1.578962476403351e-05
2.52,-1.5039990661872435e-05
2.521,-1.393986229991947e-05
2.522,-1.4181079981745065e-05
2.523,-1.4352605239068245e-05
2.524,-1.4742410664704229e-05
2.525,-1.5040057507280652e-05
2.526,-1.4539535416785436e-05
2.527,-1.3341857515669598e-05
2.528,-1.4156908977703248e-05
2.529,-1.3804139395412214e-05
2.53,-1.071185458190612e-05
2.531,-1.1415076040695703e-05
2.532,-1.325216233342647e-05
2.533,-1.2660590015770779e-05
2.534,-1.0972440408841338e-05
2.535,-9.41020869198534e-06
2.536,-9.183532384273551e-06
2.537,-8.687329715162235e-06
2.538,-9.701660173660595e-06
2.539,-1.0593395472512074e-05
2.54,-8.219551194741256e-06
2.541,-8.431910645564103e-06
2.542,-7.682402431203902e-06
2.543,-7.128593886282058e-06
2.544,-9.638645193321304e-06
2.545,-9.09513404044682e-06
2.546,-5.897297394695355e-06
2.547,-4.8614262464528995e-06
2.548,-5.019366267312007e-06
2.549,-5.6152954520637226e-06
2.55,-6.001143627047595e-06
2.551,-3.831167141355256e-06
2.552,-4.256280385345931e-06
2.553,-3.2187666483697614e-06
2.554,-3.2479443451333176e-06
2.555,-3.75725768595733e-06
2.556,-1.1431058408884574e-06
2.557,-5.855379327934035e-07
2.558,-8.507415258378463e-07
2.559,-2.5950591694496e-06
2.56,-2.170099850821376e-06
2.561,-2.028386710358597e-06
2.562,-3.028912601892547e-06
2.563,-2.841970067769803e-06
2.564,-2.8526855197331865e-06
2.565,-3.162815916761691e-06
2.566,-3.3905501611774108e-06
2.567,-2.96828016950733e-06
2.568,-3.538545613763668e-06
2.569,-3.748585078742843e-06
2.57,-3.6441167997546865e-06
2.571,-3.963098053098961e-06
2.572,-4.530252966004611e-06
2.573,-5.053102187752168e-06
2.574,-5.520074266303156e-06
2.575,-7.101040356632613e-06
2.576,-7.150316242720413e-06
2.577,-7.711854064791673e-06
2.578,-7.82604232868092e-06
2.579,-8.137289290665686e-06
2.58,-1.000141897366998e-05
2.581,-9.491887098427145e-06
2.582,-1.0103936534616586e-05
2.583,-1.0756050438770372e-05
2.584,-9.688399416283897e-06
2.585,-9.258374333788044e-06
2.586,-6.833695783237632e-06
2.587,-5.383938346530256e-06
2.588,-7.871551324940399e-06
2.589,-1.0443558880549509e-05
2.59,-1.132506213430625e-05
2.591,-1.1615447090740753e-05
2.592,-1.1387851975169548e-05
2.593,-1.189201242400428e-05
2.594,-1.2360143436291584e-05
2.595,-1.551509859018079e-05
2.596,-1.967973058271909e-05
2.597,-2.208620953795541e-05
2.598,-1.8684062309576694e-05
2.599,-1.4145877211287148e-05
2.6,-1.626994838734034e-05
2.601,-1.677956430145077e-05
2.602,-1.6019112411190477e-05
2.603,-1.794760834356007e-05
2.604,-1.9330599147036346e-05
2.605,-1.4131587620201268e-05
2.606,-9.404151757593518e-06
2.607,-1.1485789740530829e-05
2.608,-1.259423246297809e-05
2.609,-1.292657991465919e-05
2.61,-1.386119642038112e-05
2.611,-1.446190833776441e-05
2.612,-1.4983745404385518e-05
2.613,-1.5179296678191335e-05
2.614,-1.4504734579911048e-05
2.615,-1.3724691185586006e-05
2.616,-1.411542089994183e-05
2.617,-1.4766005617839378e-05
2.618,-1.3877694909310595e-05
2.619,-1.336176693171684e-05
2.62,-1.2536497697138039e-05
2.621,-1.122390682466906e-05
2.622,-1.024689947683963e-05
2.623,-9.427262807918699e-06
2.624,-8.684737094760521e-06
2.625,-8.33711619620318e-06
2.626,-7.401092535109119e-06
2.627,-6.2933959451214245e-06
2.628,-5.831716233044785e-06
2.629,-5.134957999378018e-06
2.63,-4.522541660340452e-06
2.631,-4.412703882973987e-06
2.632,-2.4200154891946074e-06
2.633,-2.552570461728282e-06
2.634,-5.509454912364398e-06
2.635,-3.779142309460898e-06
2.636,-2.6393647439697606e-06
2.637,-3.9587886019505155e-06
2.638,-4.5005104202254315e-06
2.639,-4.027038172359565e-06
2.64,-3.6060986291915536e-06
2.641,-3.4163760330726354e-06
2.642,-1.952192194517555e-06
2.643,-1.1262122146706383e-06
2.644,-1.1695037472253007e-06
2.645,-1.128661207159662e-06
2.646,-4.6017314774988997e-07
2.647,-6.226864947947997e-07
2.648,3.3177543236125317e-07
2.649,3.6632664149709867e-07
2.65,-2.3339092926066107e-06
2.651,-2.957779012866509e-06
2.652,-3.467770786024005e-06
2.653,-5.403686406073832e-06
2.654,-6.290009383361501e-06
2.655,-6.746064564591733e-06
2.656,-9.197573488523085e-06
2.657,-1.0787912806086887e-05
2.658,-1.0887336509199726e-05
2.659,-1.0998645281676468e-05
2.66,-9.458254587883096e-06
2.661,-1.0032263837087089e-05
2.662,-1.0307867709990526e-05
2.663,-9.681166107185557e-06
2.664,-1.0543009953418451e-05
2.665,-1.2564872813335516e-05
2.666,-1.4186802435139041e-05
2.667,-1.5009264640367501e-05
2.668,-1.6890173952574122e-05
2.669,-1.844768364342945e-05
2.67,-2.0668487630032916e-05
2.671,-2.3920589698722624e-05
2.672,-2.5468841653528885e-05
2.673,-2.5391140401592338e-05
2.674,-2.699306781555875e-05
2.675,-2.7618973525242553e-05
2.676,-2.64580077927663e-05
2.677,-2.6044333465177184e-05
2.678,-2.455157446113411e-05
2.679,-2.2482369492793816e-05
2.68,-2.045457341876258e-05
2.681,-1.878608645068781e-05
2.682,-1.7080432042506157e-05
2.683,-1.391503234716636e-05
2.684,-1.3033678089709805e-05
2.685,-1.5144032086848062e-05
2.686,-1.3320246739363873e-05
2.687,-1.0310032959640494e-05
2.688,-1.1344902986189821e-05
2.689,-1.2951911348345185e-05
2.69,-1.256508961940869e-05
2.691,-1.1434920702428966e-05
2.692,-8.634592576156073e-06
2.693,-6.662337980736197e-06
2.694,-6.739809221426391e-06
2.695,-4.707051546579907e-06
2.696,-2.715128585217799e-06
2.697,-2.8177472130973882e-06
2.698,-1.7632898423322441e-06
2.699,1.11508000063959e-07
2.7,2.7853575594354253e-06
2.701,4.453298103373293e-06
2.702,4.124778200571932e-06
2.703,5.319515508027212e-06
2.704,5.462043200395794e-06
2.705,5.476001207416953e-06
2.706,6.179184710758379e-06
2.707,6.280139756105672e-06
2.708,6.776745757054534e-06
2.709,7.856817359251198e-06
2.71,1.0800371596158849e-05
2.711,1.0282912042572507e-05
2.712,1.0378932050840712e-05
2.713,1.2164858038902115e-05
2.714,1.162083277720616e-05
2.715,1.3331038916127397e-05
2.716,1.278262289395554e-05
2.717,1.2563625786225002e-05
2.718,1.3560589779924931e-05
2.719,1.3956631483336757e-05
2.72,1.2930726957381168e-05
2.721,1.0658740841932158e-05
2.722,9.116387987895652e-06
2.723,7.183901738331133e-06
2.724,4.751775434718397e-06
2.725,1.5266220903818685e-06
2.726,-1.4639714238865732e-06
2.727,-4.368692484595693e-06
2.728,-7.812718420881927e-06
2.729,-1.040135595090072e-05
2.73,-1.1227033393845795e-05
2.731,-1.6979013200464055e-05
2.732,-2.3754690142906595e-05
2.733,-2.567098589995379e-05
2.734,-2.6374211458636932e-05
2.735,-2.6746879666224246e-05
2.736,-2.721030659397407e-05
2.737,-2.832239699057721e-05
2.738,-2.817068667768819e-05
2.739,-2.6461411631034122e-05
2.74,-2.670598158043548e-05
2.741,-2.6806657899540477e-05
2.742,-2.704340061392978e-05
2.743,-2.7163725298348037e-05
2.744,-2.767700960940264e-05
2.745,-2.9754066633719457e-05
2.746,-3.0632048804111517e-05
2.747,-3.1423974070965144e-05
2.748,-3.2031491810898415e-05
2.749,-3.30590322881127e-05
2.75,-3.2627283163492414e-05
2.751,-3.328404105674714e-05
2.752,-3.4010880638341866e-05
2.753,-3.112470913214874e-05
2.754,-3.2674036331254654e-05
2.755,-3.2430574577036604e-05
2.756,-2.927747201345401e-05
2.757,-2.839597328870149e-05
2.758,-2.7252522874010527e-05
2.759,-2.6188246788569165e-05
2.76,-2.4712383791081374e-05
2.761,-2.310064473356891e-05
2.762,-2.1698749768609487e-05
2.763,-2.0430637377301172e-05
2.764,-1.9410168570710795e-05
2.765,-1.85546608791301e-05
2.766,-1.609834729536e-05
2.767,-1.3703893795272865e-05
2.768,-1.207041198658787e-05
2.769,-9.736918645170367e-06
2.77,-6.580839586075005e-06
2.771,-3.311833468970582e-06
2.772,-6.618229516797136e-07
2.773,1.2274185337400212e-06
2.774,5.217524433200921e-06
2.775,7.58601896125104e-06
2.776,7.93661250706767e-06
2.777,9.606275011464006e-06
2.778,1.096854497057243e-05
2.779,1.2333053413567908e-05
2.78,1.1341716109792139e-05
2.781,9.86240852487824e-06
2.782,7.781144527736434e-06
2.783,5.293817211941904e-06
2.784,4.3984421292300075e-06
2.785,3.2886070641841237e-06
2.786,6.485311095647595e-07
2.787,-2.3501724510339716e-06
2.788,-3.950196778892051e-06
2.789,-5.509048980053522e-06
2.79,-6.5987784441047504e-06
2.791,-7.805307489299756e-06
2.792,-9.427632195641895e-06
2.793,-1.1477002963221318e-05
2.794,-1.257603390972073e-05
2.795,-1.37575680164686e-05
2.796,-1.566307091402945e-05
2.797,-1.5440354286253124e-05
2.798,-1.5940535457921702e-05
2.799,-1.7814300828792414e-05
2.8,-1.9107722568695075e-05
2.801,-1.985803965501567e-05
2.802,-2.2889917440357744e-05
2.803,-2.8912716055339623e-05
2.804,-3.261921466195854e-05
2.805,-3.4786062500769644e-05
2.806,-3.517598398872048e-05
2.807,-3.6541493555702263e-05
2.808,-4.26296239565486e-05
2.809,-4.7886986298444116e-05
2.81,-4.9664398573538e-05
2.811,-5.12203632251107e-05
2.812,-5.362284337606021e-05
2.813,-5.6049060039781975e-05
2.814,-5.638336802525292e-05
2.815,-5.491361255885632e-05
2.816,-5.68266638491081e-05
2.817,-5.5204020296416534e-05
2.818,-5.301842463067984e-05
2.819,-4.9832334144023594e-05
2.82,-4.389883452276129e-05
2.821,-4.256521925820771e-05
2.822,-3.967902603613325e-05
2.823,-3.439589301130467e-05
2.824,-2.958823899427861e-05
2.825,-2.505354166887374e-05
2.826,-1.6920928715049052e-05
2.827,-8.254925255628402e-06
2.828,-4.5550671147482625e-07
2.829,9.345948498357182e-06
2.83,1.8494686026195676e-05
2.831,2.612392778962161e-05
2.832,3.346842704770755e-05
2.833,4.177876988860132e-05
2.834,4.653481447261821e-05
2.835,4.9156712795923e-05
2.836,5.1312213832827014e-05
2.837,5.331936904682473e-05
2.838,5.40442959014492e-05
2.839,5.1994231762466136e-05
2.84,5.1806654250887555e-05
2.841,5.0135685172779455e-05
2.842,4.803727928145852e-05
2.843,4.8354794229220326e-05
2.844,4.290643801344753e-05
2.845,3.737581480306505e-05
2.846,3.660638126594893e-05
2.847,3.3700141023465006e-05
2.848,3.1520409335370554e-05
2.849,3.209803626077194e-05
2.85,3.2240136694859055e-05
2.851,3.274017540022221e-05
2.852,3.4288209456878993e-05
2.853,3.488019327018363e-05
2.854,3.5325477334749125e-05
2.855,3.365194215609183e-05
2.856,3.160855610371963e-05
2.857,3.146548269472563e-05
2.858,3.121214672284216e-05
2.859,2.9253868405421147e-05
2.86,2.610777299937134e-05
2.861,2.3098677831256433e-05
2.862,1.875556093448633e-05
2.863,1.6009047916862273e-05
2.864,1.1390145483116662e-05
2.865,4.23023255811495e-06
2.866,-2.037877657582224e-06
2.867,-5.478145713821378e-06
2.868,-6.549220766962239e-06
2.869,-1.2402529785913856e-05
2.87,-1.9180976686312124e-05
2.871,-2.581860170512208e-05
2.872,-3.194142711231858e-05
2.873,-3.506956912626434e-05
2.874,-4.2320544848655655e-05
2.875,-4.921356273718338e-05
2.876,-5.307446826298243e-05
2.877,-5.754093208465806e-05
2.878,-6.0467421806147596e-05
2.879,-6.302949233518438e-05
2.88,-6.492696335372361e-05
2.881,-6.57856224667685e-05
2.882,-6.625719431960255e-05
2.883,-6.781744281693589e-05
2.884,-6.84624174589361e-05
2.885,-6.580300620061002e-05
2.886,-6.495810534427872e-05
2.887,-6.494685010349435e-05
2.888,-6.448045572186563e-05
2.889,-6.465428721985675e-05
2.89,-6.474079672452267e-05
2.891,-6.468393484323118e-05
2.892,-6.519555494003646e-05
2.893,-6.5654189892503e-05
2.894,-6.590639885414741e-05
2.895,-6.65706707782673e-05
2.896,-6.894365016411223e-05
2.897,-7.20082393594647e-05
2.898,-7.224295189377697e-05
2.899,-7.133176190948063e-05
2.9,-6.737363082615201e-05
2.901,-6.539090287022017e-05
2.902,-6.583584764287547e-05
2.903,-6.429478425835534e-05
2.904,-6.238943410198902e-05
2.905,-5.567539808088646e-05
2.906,-4.8637915304189486e-05
2.907,-4.308530763620353e-05
2.908,-3.82407236957228e-05
2.909,-3.5432945429526295e-05
2.91,-2.868709506789624e-05
2.911,-2.3916072347974338e-05
2.912,-2.081346210068372e-05
2.913,-1.7048489844735355e-05
2.914,-1.3763384725287381e-05
2.915,-1.0573257719744148e-05
2.916,-1.0268344888109652e-05
2.917,-8.118227868930389e-06
2.918,-5.777452167926397e-06
2.919,-6.691838732984351e-06
2.92,-6.404739541093999e-06
2.921,-4.3625284787715914e-06
2.922,-4.118740282150864e-06
2.923,-3.5364590899975957e-06
2.924,-4.9887926239125954e-06
2.925,-6.957520696828827e-06
2.926,-7.730247351947439e-06
2.927,-1.1096584720468106e-05
2.928,-1.2744028082128733e-05
2.929,-1.3854227475833095e-05
2.93,-1.5500313402532923e-05
2.931,-1.7245796052038834e-05
2.932,-2.0145344077452932e-05
2.933,-2.1747485567313697e-05
2.934,-2.419899345605245e-05
2.935,-2.5350456817722135e-05
2.936,-2.6362334076283357e-05
2.937,-2.5910664270628237e-05
2.938,-2.4991598343169853e-05
2.939,-2.7024011062335676e-05
2.94,-2.7449657994556676e-05
2.941,-2.6930628834913023e-05
2.942,-2.644418417106922e-05
2.943,-2.6875405100299483e-05
2.944,-2.760838904793728e-05
2.945,-2.9316948939321488e-05
2.946,-2.945588393654612e-05
2.947,-2.9153869515781412e-05
2.948,-3.3108860891056734e-05
2.949,-3.448663255733814e-05
2.95,-3.4922719972587695e-05
2.951,-3.6727631211971955e-05
2.952,-3.8994807308557434e-05
2.953,-4.1710480096692015e-05
2.954,-4.1964348648585385e-05
2.955,-4.195989962928149e-05
2.956,-4.3623245516491976e-05
2.957,-4.2909540903901956e-05
2.958,-4.2706336019537364e-05
2.959,-4.223359833278128e-05
2.96,-3.794052865072421e-05
2.961,-3.479966600319342e-05
2.962,-3.139906925598841e-05
2.963,-2.9933547321612287e-05
2.964,-2.899596448275601e-05
2.965,-2.6369571339613652e-05
2.966,-2.4322121719885526e-05
2.967,-2.240226293131616e-05
2.968,-2.0538372222846582e-05
2.969,-1.9139700995134546e-05
2.97,-1.80994217829274e-05
2.971,-1.6998983905861352e-05
2.972,-1.561309120955422e-05
2.973,-1.4714623363759391e-05
2.974,-1.4178919636020116e-05
2.975,-1.1887007546836836e-05
2.976,-1.1327557214943052e-05
2.977,-1.0797542135305774e-05
2.978,-8.801758475667275e-06
2.979,-7.751475509911666e-06
2.98,-6.062548226964076e-06
2.981,-4.1533200297628584e-06
2.982,-5.242590019382528e-06
2.983,-5.347834556487838e-06
2.984,-2.9837789490007732e-06
2.985,-4.561333382942769e-06
2.986,-5.686853412472559e-06
2.987,-5.4616670494385496e-06
2.988,-5.181825987754767e-06
2.989,-5.538077489959409e-06
2.99,-6.216099754708077e-06
2.991,-6.59707888830826e-06
2.992,-7.558713855739409e-06
2.993,-8.076707062715372e-06
2.994,-8.126731461734068e-06
2.995,-9.38676903008256e-06
2.996,-1.1439607589726883e-05
2.997,-1.0675186369842417e-05
2.998,-9.992419856115932e-06
2.999,-1.0100124952115728e-05
3.0,-1.0616740442283306e-05
3.001,-1.136866043149709e-05
3.002,-1.1687191764987899e-05
3.003,-1.2804364029254979e-05
3.004,-1.5448035351731276e-05
3.005,-1.7036910103139597e-05
3.006,-1.3476180975429703e-05
3.007,-1.6054502412518167e-05
3.008,-2.184288442463644e-05
3.009,-2.2295872744868944e-05
3.01,-2.4355078605587852e-05
3.011,-2.6154780010613734e-05
3.012,-2.8128986880707402e-05
3.013,-3.101909756268752e-05
3.014,-2.8381120208411372e-05
3.015,-2.6491421366788637e-05
3.016,-3.0250107269186572e-05
3.017,-3.0781428703231527e-05
3.018,-2.8730993128001905e-05
3.019,-2.736001426081003e-05
3.02,-2.5837265162887263e-05
3.021,-2.5929759818572825e-05
3.022,-2.599341310387664e-05
3.023,-2.5764980728049572e-05
3.024,-2.585644491023415e-05
3.025,-2.415270186340811e-05
3.026,-2.641296397771137e-05
3.027,-2.9975774620609454e-05
3.028,-2.81670208219746e-05
3.029,-2.7509894283950112e-05
3.03,-2.863545951309935e-05
3.031,-2.8292384485956812e-05
3.032,-2.705449170833654e-05
3.033,-2.59250828530169e-05
3.034,-2.493743649288938e-05
3.035,-2.315141113262268e-05
3.036,-2.2646627027753954e-05
3.037,-2.051317108362174e-05
3.038,-1.8241101056511805e-05
3.039,-1.681017102182404e-05
3.04,-1.528114051217939e-05
3.041,-1.3689776677420063e-05
3.042,-1.2044252952034088e-05
3.043,-1.2226152024932042e-05
3.044,-1.2394770745498064e-05
3.045,-1.1993975909030013e-05
3.046,-1.1460537452931422e-05
3.047,-1.1832713335322063e-05
3.048,-1.1957894844471106e-05
3.049,-1.0898329663816957e-05
3.05,-1.053428356992584e-05
3.051,-9.664421451089525e-06
3.052,-9.603615958829375e-06
3.053,-1.0078760575045721e-05
3.054,-9.123418388066961e-06
3.055,-7.37224421867811e-06
3.056,-5.856067178144452e-06
3.057,-3.898330532071162e-06
3.058,-4.113295377224963e-06
3.059,-4.806078471904386e-06
3.06,-2.9742721679949096e-06
3.061,-1.510640293366708e-06
3.062,-1.006238352749468e-06
3.063,-5.532892129162331e-07
3.064,-3.4725275312688725e-07
3.065,-1.0877339866696583e-06
3.066,-6.781362319272518e-07
3.067,-6.24232564796938e-07
3.068,-1.532049207430797e-06
3.069,-1.0558773976205721e-07
3.07,-9.449352578978956e-07
3.071,-9.452203512168078e-07
3.072,-5.966871063912735e-07
3.073,-3.3859162814306978e-06
3.074,-3.697970370608013e-06
3.075,-3.819027662549024e-06
3.076,-6.738942509360322e-06
3.077,-4.553152475323764e-06
3.078,-1.1634547029426265e-06
3.079,-3.877378207879793e-06
3.08,-2.2061503559810494e-06
3.081,-3.961544990506186e-06
3.082,-6.552151843356357e-06
3.083,-2.379771916046825e-06
3.084,-2.2366853523637828e-06
3.085,-5.3044418624389875e-06
3.086,-6.954598442468081e-06
3.087,-6.351508192234187e-06
3.088,-5.056899495014461e-06
3.089,-5.035639078186495e-06
3.09,-5.661807720153649e-06
3.091,-6.524084767175434e-06
3.092,-6.529467970922978e-06
3.093,-7.004552772385484e-06
3.094,-7.093936084249146e-06
3.095,-4.855744590732845e-06
3.096,-3.654749343086206e-06
3.097,-2.4539423524986574e-06
3.098,-1.0057471202411643e-06
3.099,-4.441602503191755e-07
3.1,-3.7904794353399583e-07
3.101,-1.2935529029490454e-06
3.102,-2.4451391114247157e-06
3.103,-4.570275889076443e-06
3.104,-5.192217854605837e-06
3.105,-3.930858293414116e-06
3.106,-4.313296133197665e-06
3.107,-5.5836168535440326e-06
3.108,-8.110471046722853e-06
3.109,-8.19133246112619e-06
3.11,-3.95278809563603e-06
3.111,-3.9467867873268654e-06
3.112,-4.543363474543254e-06
3.113,-2.4208742262063722e-06
3.114,-7.551430954294475e-07
3.115,-1.0090797801374522e-06
3.116,-1.6242527123326093e-06
3.117,2.843929847340124e-07
3.118,4.2995383742493457e-07
3.119,-8.490223598087279e-07
3.12,-1.394691348401271e-06
3.121,-4.386719641880019e-07
3.122,1.8879133580351094e-06
3.123,1.2446007010345316e-06
3.124,9.73367357600679e-07
3.125,6.931761496091038e-07
3.126,9.798071520397412e-08
3.127,6.583557406781251e-07
3.128,1.1263713608785282e-06
3.129,2.842860743851098e-06
3.13,4.4459046168786695e-06
3.131,5.0792222367633344e-06
3.132,5.599230007058051e-06
3.133,5.2797887777559906e-06
3.134,5.414061841954518e-06
3.135,5.813379821890371e-06
3.136,5.903478501832258e-06
3.137,6.81886682510995e-06
3.138,6.596335342151133e-06
3.139,6.268695174644001e-06
3.14,6.559738053837008e-06
3.141,6.681152547580269e-06
3.142,6.8317682327570005e-06
3.143,7.399092385549436e-06
3.144,7.662721868192424e-06
3.145,6.998918840033111e-06
3.146,7.985478489183562e-06
3.147,6.506012006433749e-06
3.148,4.752913421471035e-06
3.149,5.22854429572658e-06
3.15,4.8445057407149e-06
3.151,3.419212444678577e-06
3.152,1.2742780688009674e-06
3.153,2.3041565720325203e-07
3.154,1.4036194843170046e-06
3.155,-9.768135686727131e-08
3.156,-3.674005232711164e-06
3.157,-2.345252526431755e-07
3.158,2.404796343446279e-06
3.159,4.2425707642869994e-07
3.16,2.2040461807623832e-06
3.161,2.4277628254467442e-06
3.162,-1.814842423682722e-06
3.163,-1.4264090008028045e-06
3.164,-1.0020458939253376e-06
3.165,-2.93090609436818e-06
3.166,-1.8989211272153294e-06
3.167,-1.3921300083680644e-06
3.168,-2.999909982384897e-06
3.169,-5.817418121244356e-06
3.17,-8.046685375644526e-06
3.171,-7.796046647729917e-06
3.172,-7.777900665060401e-06
3.173,-1.1105117694261808e-05
3.174,-1.168669356549841e-05
3.175,-1.2023433525880366e-05
3.176,-1.6204502889121058e-05
3.177,-1.670558895643155e-05
3.178,-1.5689190653643245e-05
3.179,-1.6607222632598763e-05
3.18,-1.650574129611063e-05
3.181,-1.7231233208331445e-05
3.182,-1.6837613182905477e-05
3.183,-1.719291095495213e-05
3.184,-1.7484613496386678e-05
3.185,-1.6422781725554266e-05
3.186,-1.7540356269370655e-05
3.187,-1.69904641376647e-05
3.188,-1.4940976732737341e-05
3.189,-1.4066982002786418e-05
3.19,-1.514215531588597e-05
3.191,-1.4730193722956165e-05
3.192,-1.3777487212669032e-05
3.193,-1.3508035224378119e-05
3.194,-1.2921300940250508e-05
3.195,-1.3993276901374857e-05
3.196,-1.4680576426364612e-05
3.197,-1.3826935408804023e-05
3.198,-1.4671172914880565e-05
3.199,-1.4855466506873044e-05
3.2,-1.303277698255418e-05
3.201,-1.2672408441343997e-05
3.202,-1.2662988124987712e-05
3.203,-1.2412549032118098e-05
3.204,-1.2045834988549561e-05
3.205,-1.0899355951787216e-05
3.206,-9.815039648948922e-06
3.207,-1.033350786582496e-05
3.208,-9.688027227614692e-06
3.209,-9.000045647228126e-06
3.21,-9.176951782464931e-06
3.211,-8.812330982897192e-06
3.212,-8.588595182310936e-06
3.213,-8.281497370437807e-06
3.214,-7.665758997292666e-06
3.215,-7.3208818733192495e-06
3.216,-7.836205472114796e-06
3.217,-6.6144037470520644e-06
3.218,-6.27286845837907e-06
3.219,-5.942756851918454e-06
3.22,-3.6658380149019115e-06
3.221,-2.289599799724694e-06
3.222,-1.8613284799489623e-06
3.223,-1.9220112786032556e-06
3.224,-2.700920806654317e-06
3.225,-3.211623582604845e-06
3.226,-3.049934275479073e-06
3.227,-4.594049868737476e-06
3.228,-5.606788740639354e-06
3.229,-7.539575014727987e-06
3.23,-9.137588825808032e-06
3.231,-8.945376951721962e-06
3.232,-1.0212198625231456e-05
3.233,-1.1796464628689063e-05
3.234,-1.3568795170250642e-05
3.235,-1.4213443319077268e-05
3.236,-1.522806964060987e-05
3.237,-1.492207372314802e-05
3.238,-1.3413858652787542e-05
3.239,-1.4627504243070017e-05
3.24,-1.4989345526976344e-05
3.241,-1.522489915428952e-05
3.242,-1.645646762960238e-05
3.243,-1.6401603376973135e-05
3.244,-1.6072458505497958e-05
3.245,-1.5175907772502471e-05
3.246,-1.5714232171917226e-05
3.247,-1.718610109428465e-05
3.248,-1.638759470922444e-05
3.249,-1.731305835427172e-05
3.25,-1.6955663045381125e-05
3.251,-1.630764207117223e-05
3.252,-2.1060263441682614e-05
3.253,-2.2303664810329844e-05
3.254,-2.1226709912365194e-05
3.255,-2.1617019273414445e-05
3.256,-2.3061286180561062e-05
3.257,-2.4545921474576655e-05
3.258,-2.135799188938569e-05
3.259,-1.878634241258837e-05
3.26,-2.032273820252267e-05
3.261,-2.0962836847842647e-05
3.262,-1.9506812369282317e-05
3.263,-1.9459497028057754e-05
3.264,-2.0229978285568828e-05
3.265,-2.033067400214813e-05
3.266,-1.8875994473502216e-05
3.267,-1.9080770493862936e-05
3.268,-1.9458670108206198e-05
3.269,-1.632083537842893e-05
3.27,-1.537494237052008e-05
3.271,-1.6924826685081273e-05
3.272,-1.7870732485222508e-05
3.273,-1.8410148137625788e-05
3.274,-1.6939100926118267e-05
3.275,-1.5253710813275345e-05
3.276,-1.4651760103186829e-05
3.277,-1.3534028823125267e-05
3.278,-1.360517600808566e-05
3.279,-1.3974010623803658e-05
3.28,-1.2153083546839762e-05
3.281,-1.0557631315370317e-05
3.282,-1.0303999115212243e-05
3.283,-9.607750887049863e-06
3.284,-9.981727021402295e-06
3.285,-9.734327154678213e-06
3.286,-7.268274215037811e-06
3.287,-6.680058370466069e-06
3.288,-7.660173011452537e-06
3.289,-8.094150359661766e-06
3.29,-8.164295226300616e-06
3.291,-8.15191614435591e-06
3.292,-8.439776887137012e-06
3.293,-7.814448949119183e-06
3.294,-7.568243603855285e-06
3.295,-8.600442473410212e-06
3.296,-7.51762469900906e-06
3.297,-6.33299833742975e-06
3.298,-6.664770884070537e-06
3.299,-7.733723370971086e-06
3.3,-8.060267751491464e-06
3.301,-7.261352599518466e-06
3.302,-6.64762474195866e-06
3.303,-5.221246196951066e-06
3.304,-5.974704598042769e-06
3.305,-6.490845731827129e-06
3.306,-7.0442100798209385e-06
3.307,-1.0203588143126054e-05
3.308,-1.0735542505809767e-05
3.309,-9.408500145044895e-06
3.31,-8.896917092262851e-06
3.311,-1.1284975556614948e-05
3.312,-1.326930055950274e-05
3.313,-1.2460279855142118e-05
3.314,-1.0681728863828084e-05
3.315,-1.0768844034060214e-05
3.316,-1.2564608858495861e-05
3.317,-1.1415027889672366e-05
3.318,-1.0063736296904404e-05
3.319,-8.446640198277153e-06
3.32,-9.687268123098297e-06
3.321,-1.2093448974242576e-05
3.322,-1.2255781452049043e-05
3.323,-1.4948140994433801e-05
3.324,-1.2730210269187126e-05
3.325,-1.0951752568362253e-05
3.326,-1.4158110969446216e-05
3.327,-1.6096243902290996e-05
3.328,-1.8020525963971226e-05
3.329,-1.599756558436831e-05
3.33,-1.540941800236823e-05
3.331,-1.765478743368928e-05
3.332,-1.674808744628379e-05
3.333,-1.881652506063309e-05
3.334,-1.8995649507500165e-05
3.335,-1.6124020548732282e-05
3.336,-1.733777163030422e-05
3.337,-1.6565850956423153e-05
3.338,-1.592661633033678e-05
3.339,-1.6226251968683758e-05
3.34,-1.6559197478095344e-05
3.341,-1.9210471913148713e-05
3.342,-1.7859485504122903e-05
3.343,-1.4184702535070091e-05
3.344,-1.3268386516526036e-05
3.345,-1.240064442875478e-05
3.346,-1.3082093751063634e-05
3.347,-1.442468893270855e-05
3.348,-1.4250531043956317e-05
3.349,-1.3888801881535912e-05
3.35,-1.3371262907995746e-05
3.351,-1.382699355549862e-05
3.352,-1.5377175741825706e-05
3.353,-1.5030740557156237e-05
3.354,-1.4581576608938683e-05
3.355,-1.4907774612440991e-05
3.356,-1.4273083621414613e-05
3.357,-1.4730426665872896e-05
3.358,-1.6227017928386757e-05
3.359,-1.601038700843907e-05
3.36,-1.4034484552382222e-05
3.361,-1.386503726143087e-05
3.362,-1.4983439042726539e-05
3.363,-1.15886891840984e-05
3.364,-8.497181774649596e-06
3.365,-9.440466387382539e-06
3.366,-8.561388447631074e-06
3.367,-4.9092338945654596e-06
3.368,-5.734614112658776e-06
3.369,-6.384818556307645e-06
3.37,-3.500238735395166e-06
3.371,-4.412251895977967e-06
3.372,-3.242684278045727e-06
3.373,-6.046990202456956e-07
3.374,-1.0471974223044065e-07
3.375,-1.448470840693647e-07
3.376,1.7482279615103763e-07
3.377,-3.454949901142285e-07
3.378,-4.05977341538423e-07
3.379,1.6932273967826997e-06
3.38,5.534218003202473e-07
3.381,6.794280530868863e-07
3.382,2.3817807128238015e-06
3.383,1.6784540147864027e-06
3.384,-3.044182290572684e-07
3.385,-2.2332145908277857e-06
3.386,-2.2690319087852075e-06
3.387,-1.9712809086052773e-06
3.388,-2.0022476220474125e-06
3.389,-3.231974423993139e-06
3.39,-4.942692629752668e-06
3.391,-5.13204397300425e-06
3.392,-4.814466681814672e-06
3.393,-4.9203761888517e-06
3.394,-4.593102943256807e-06
3.395,-5.083907564473321e-06
3.396,-5.145717432900116e-06
3.397,-3.6264628378543684e-06
3.398,-3.46299201496371e-06
3.399,-5.276490437887389e-06
3.4,-5.270123304322039e-06
3.401,-4.829289478746149e-06
3.402,-7.224470063367552e-06
3.403,-7.81623916335982e-06
3.404,-7.961646112152725e-06
3.405,-9.42093807540063e-06
3.406,-1.0463512803594274e-05
3.407,-1.2872091539150922e-05
3.408,-1.4944371081168395e-05
3.409,-1.6291813214306394e-05
3.41,-1.793569810798768e-05
3.411,-1.7601031724653794e-05
3.412,-1.820928011872101e-05
3.413,-2.0271140920744152e-05
3.414,-1.988061103121891e-05
3.415,-1.9911455509943613e-05
3.416,-2.2116843972172174e-05
3.417,-2.4432445767306205e-05
3.418,-2.608273526194917e-05
3.419,-2.5289737429669318e-05
3.42,-2.5183024659451472e-05
3.421,-2.6209527244801545e-05
3.422,-2.7441686169933468e-05
3.423,-2.7282668622284435e-05
3.424,-2.596776007185031e-05
3.425,-2.366158571752761e-05
3.426,-1.8251418809237787e-05
3.427,-1.5837412385434816e-05
3.428,-1.482105539780399e-05
3.429,-1.3693431540701528e-05
3.43,-1.2224904819279792e-05
3.431,-8.457660626814446e-06
3.432,-8.502122493993274e-06
3.433,-9.837703348912236e-06
3.434,-7.317720510360737e-06
3.435,-6.277700964163538e-06
3.436,-6.045819043078754e-06
3.437,-4.253915619291738e-06
3.438,-4.047489980181346e-06
3.439,-3.6932400409105062e-06
3.44,-2.1831233915538263e-06
3.441,-9.344581824700549e-07
3.442,-3.861935687847429e-07
3.443,1.7079403951764743e-06
3.444,3.288233095686713e-06
3.445,5.098302639356661e-06
3.446,5.793430655094778e-06
3.447,3.846629093631404e-06
3.448,5.351534139681996e-06
3.449,6.521745626783166e-06
3.45,6.986803746061554e-06
3.451,8.385527066943765e-06
3.452,8.357843421924334e-06
3.453,8.23646551780059e-06
3.454,8.23976440497067e-06
3.455,1.016697977335575e-05
3.456,1.1396514460199897e-05
3.457,1.2187557417045964e-05
3.458,1.5584747435659892e-05
3.459,1.702511521256279e-05
3.46,1.5846199191806106e-05
3.461,1.4894073643459036e-05
3.462,1.3930077162387462e-05
3.463,1.2235273636628348e-05
3.464,1.0012071565789653e-05
3.465,6.782903323147538e-06
3.466,6.8863431010119914e-06
3.467,6.4714415228560615e-06
3.468,2.291311202011354e-06
3.469,-1.3029291904678663e-06
3.47,-4.56686315421995e-06
3.471,-6.765433761112914e-06
3.472,-9.873248655590921e-06
3.473,-1.3872676633936071e-05
3.474,-1.665029086175176e-05
3.475,-1.619251829186928e-05
3.476,-1.7581499345396917e-05
3.477,-2.0992120803975687e-05
3.478,-2.33909647733076e-05
3.479,-2.5837555398908762e-05
3.48,-2.678784554831258e-05
3.481,-2.8299445058521823e-05
3.482,-2.9737728761645245e-05
3.483,-3.068174254276686e-05
3.484,-3.2128791678697365e-05
3.485,-3.179675889809182e-05
3.486,-3.222353753569057e-05
3.487,-3.366342490581197e-05
3.488,-3.328082762286233e-05
3.489,-3.364209927689379e-05
3.49,-3.410668113795942e-05
3.491,-3.4118885799542265e-05
3.492,-3.4901617983621406e-05
3.493,-3.565306719050934e-05
3.494,-3.5646970077581466e-05
3.495,-3.483649318507102e-05
3.496,-3.4161215487283216e-05
3.497,-3.385618778219741e-05
3.498,-3.316169557755563e-05
3.499,-3.233221437298174e-05
3.5,-3.1243148284601875e-05
3.501,-2.9694273667124028e-05
3.502,-2.7909320339428567e-05
3.503,-2.663173566674406e-05
3.504,-2.571729456543871e-05
3.505,-2.2924742208134283e-05
3.506,-2.140599974025726e-05
3.507,-1.9997567837328954e-05
3.508,-1.7214606724873916e-05
3.509,-1.604877384810124e-05
3.51,-1.4570319975273927e-05
3.511,-1.2934269501569277e-05
3.512,-1.1189845971547958e-05
3.513,-9.191754405507325e-06
3.514,-6.911586528010036e-06
3.515,-4.2475314970672695e-06
3.516,-1.7307711805071375e-06
3.517,1.272609969331376e-06
3.518,3.864730060328313e-06
3.519,6.62382516349807e-06
3.52,1.0816052550201103e-05
3.521,1.3609667573166568e-05
3.522,1.4289684818796256e-05
3.523,1.4771033667794369e-05
3.524,1.4508409069598535e-05
3.525,1.490147239036871e-05
3.526,1.409470688921044e-05
3.527,1.2071980461601612e-05
3.528,9.94660302479629e-06
3.529,7.748278297425087e-06
3.53,5.308750174833073e-06
3.531,3.048075893087791e-06
3.532,1.3633065961073512e-06
3.533,-7.90510439800442e-08
3.534,-3.5460142425109034e-06
3.535,-7.236456919477115e-06
3.536,-7.275386214557948e-06
3.537,-8.905315829666577e-06
3.538,-9.776254350817451e-06
3.539,-1.0635943783088104e-05
3.54,-1.4121842373775705e-05
3.541,-1.6955976787807868e-05
3.542,-1.7643257333712323e-05
3.543,-1.697324577469773e-05
3.544,-2.0924787221662476e-05
3.545,-2.4872458041591162e-05
3.546,-2.6993511767217173e-05
3.547,-3.1073963600178523e-05
3.548,-3.361264234684055e-05
3.549,-3.622242028216691e-05
3.55,-4.0428339497019676e-05
3.551,-4.3162901384241164e-05
3.552,-4.695928271202148e-05
3.553,-4.9743605855616335e-05
3.554,-4.962756394854069e-05
3.555,-5.320265797352517e-05
3.556,-5.74370521682394e-05
3.557,-5.857564043626836e-05
3.558,-5.934340972983227e-05
3.559,-6.115167084673718e-05
3.56,-6.340628715438655e-05
3.561,-6.191673803376122e-05
3.562,-5.8604751674492794e-05
3.563,-5.671134416008947e-05
3.564,-5.520138732826176e-05
3.565,-5.116524529102525e-05
3.566,-4.67174961949741e-05
3.567,-4.2593210496908685e-05
3.568,-3.654261348229572e-05
3.569,-3.072515961987901e-05
3.57,-2.470405892482231e-05
3.571,-1.9342122766741735e-05
3.572,-1.2599472631132698e-05
3.573,-2.5332405245620443e-06
3.574,7.901039934345714e-06
3.575,1.5847018472278163e-05
3.576,2.3244990069982605e-05
3.577,3.073019233019667e-05
3.578,3.743276368836056e-05
3.579,4.3479883465002606e-05
3.58,4.770018936627148e-05
3.581,5.103009456320502e-05
3.582,5.3021188447069214e-05
3.583,5.5247582644697024e-05
3.584,5.5511919803336765e-05
3.585,5.504883170044934e-05
3.586,5.4324915270336454e-05
3.587,5.463475431097351e-05
3.588,5.259308433847805e-05
3.589,4.782379108428896e-05
3.59,4.40469553837147e-05
3.591,3.9365522805894076e-05
3.592,3.635332172659159e-05
3.593,3.394604804790827e-05
3.594,3.253648642259848e-05
3.595,3.207469275425484e-05
3.596,3.4773198562501653e-05
3.597,3.7916612026877455e-05
3.598,4.007438554327112e-05
3.599,4.041508680396419e-05
3.6,3.7220315742591834e-05
3.601,3.559648332323339e-05
3.602,3.688299948054601e-05
3.603,3.5555956570683145e-05
3.604,3.1627059747007025e-05
3.605,2.863824582595063e-05
3.606,2.3353042975268358e-05
3.607,1.834616306126252e-05
3.608,1.6493021674299053e-05
3.609,1.0360819489973541e-05
3.61,2.002505578247086e-06
3.611,-2.745569687260757e-06
3.612,-7.96213491723936e-06
3.613,-1.3036081851965901e-05
3.614,-1.7459187278720154e-05
3.615,-2.2717897247454885e-05
3.616,-2.6885755680801782e-05
3.617,-3.141796048894107e-05
3.618,-3.6849191544466465e-05
3.619,-4.169533052295821e-05
3.62,-4.6559065505635434e-05
3.621,-5.303874172615755e-05
3.622,-6.0339282356132744e-05
3.623,-5.9883642964293016e-05
3.624,-6.182313545078527e-05
3.625,-6.954508078287342e-05
3.626,-7.177660489640614e-05
3.627,-7.218392361705566e-05
3.628,-7.176708911148782e-05
3.629,-7.15507976290899e-05
3.63,-7.147239307002265e-05
3.631,-7.016856593929397e-05
3.632,-7.016239259385269e-05
3.633,-7.365226984118853e-05
3.634,-7.510399532272297e-05
3.635,-7.204677695141142e-05
3.636,-7.027340002944027e-05
3.637,-6.99442240868983e-05
3.638,-7.099420532515375e-05
3.639,-7.204181126944114e-05
3.64,-7.309855252520084e-05
3.641,-7.527791189740072e-05
3.642,-7.48026816323083e-05
3.643,-7.36100766069836e-05
3.644,-7.255440869010054e-05
3.645,-7.240751288090666e-05
3.646,-6.985744290743713e-05
3.647,-6.410615326072358e-05
3.648,-6.276693113993344e-05
3.649,-6.126223821229421e-05
3.65,-5.722239744548578e-05
3.651,-5.1885263909626644e-05
3.652,-4.6196710869212205e-05
3.653,-4.1411504396984236e-05
3.654,-3.609398130638363e-05
3.655,-3.151791730711685e-05
3.656,-2.6365081294864912e-05
3.657,-2.0822198483372406e-05
3.658,-1.9476348621557865e-05
3.659,-1.5109150135037752e-05
3.66,-7.590366244943345e-06
3.661,-5.571760407411182e-06
3.662,-3.882086822004752e-06
3.663,-1.8240109028971298e-06
3.664,-2.773523861826924e-06
3.665,-3.882078779392799e-06
3.666,-4.081285646673752e-06
3.667,-4.289623046237382e-06
3.668,-5.420317339111469e-06
3.669,-7.0893584581967794e-06
3.67,-8.222596906993943e-06
3.671,-1.0061006095487651e-05
3.672,-1.1163477565586907e-05
3.673,-1.3106899914001614e-05
3.674,-1.5183694361292227e-05
3.675,-1.6897372963898915e-05
3.676,-1.7856985526897544e-05
3.677,-1.8371479068532654e-05
3.678,-2.1144982757161853e-05
3.679,-2.2673852485147033e-05
3.68,-2.3445991001511267e-05
3.681,-2.244255318329502e-05
3.682,-2.2341717843134834e-05
3.683,-2.4823827929489292e-05
3.684,-2.727693338096548e-05
3.685,-2.8801661066572865e-05
3.686,-2.8414404965922127e-05
3.687,-2.9748069210572393e-05
3.688,-3.004997142889737e-05
3.689,-2.9776966463376015e-05
3.69,-3.0688310237833654e-05
3.691,-3.0037177554500962e-05
3.692,-3.3062012512889104e-05
3.693,-3.717898209494561e-05
3.694,-3.857670466846164e-05
3.695,-4.011414735998537e-05
3.696,-4.0822168572984676e-05
3.697,-4.290868501058347e-05
3.698,-4.5266939235527186e-05
3.699,-4.508590795493247e-05
3.7,-4.6661586587828155e-05
3.701,-4.750775627541866e-05
3.702,-4.6664903184472333e-05
3.703,-4.5006206063076645e-05
3.704,-4.313989934461545e-05
3.705,-4.4207797947081584e-05
3.706,-4.37802670356006e-05
3.707,-3.9448365168324126e-05
3.708,-3.6514221633238776e-05
3.709,-3.7480885782222805e-05
3.71,-3.574288906206331e-05
3.711,-3.1778596364273305e-05
3.712,-2.944512322442018e-05
3.713,-2.8676208523452514e-05
3.714,-2.808301806658331e-05
3.715,-2.6957472977639574e-05
3.716,-2.5377400301370825e-05
3.717,-2.0612628050851033e-05
3.718,-1.9631109480813235e-05
3.719,-2.0104256431671005e-05
3.72,-1.7610864589157862e-05
3.721,-1.7739285426063773e-05
3.722,-1.8087793927152412e-05
3.723,-1.5063371646414367e-05
3.724,-1.1979332318389554e-05
3.725,-1.0852336242180389e-05
3.726,-1.1699360215156576e-05
3.727,-1.1435118636089737e-05
3.728,-1.0770289386632426e-05
3.729,-1.1810715738270576e-05
3.73,-9.95756718116946e-06
3.731,-7.408279927054751e-06
3.732,-8.157986681646165e-06
3.733,-9.201098850405861e-06
3.734,-9.432723836274507e-06
3.735,-8.7496749524002e-06
3.736,-7.95094216786784e-06
3.737,-8.837614089713252e-06
3.738,-8.51235088711543e-06
3.739,-5.978584359315148e-06
3.74,-7.039652969831368e-06
3.741,-8.89806397953791e-06
3.742,-9.255018901733955e-06
3.743,-1.0010257113742117e-05
3.744,-1.1262184743167174e-05
3.745,-1.1308181518371778e-05
3.746,-1.2144933311852444e-05
3.747,-1.4068632227865792e-05
3.748,-1.467492055107425e-05
3.749,-1.695852243257118e-05
3.75,-1.771259357564939e-05
3.751,-1.7927905935294504e-05
3.752,-2.0292052529964467e-05
3.753,-2.1388891012697546e-05
3.754,-2.2598434110900746e-05
3.755,-2.349733918192446e-05
3.756,-2.4560055480270157e-05
3.757,-2.6460571444049077e-05
3.758,-2.8374585577233563e-05
3.759,-2.9181825031083183e-05
3.76,-2.9468175110400677e-05
3.761,-2.9727274102964608e-05
3.762,-2.7061276080166063e-05
3.763,-2.7380585120795378e-05
3.764,-3.1102504203122357e-05
3.765,-3.124890024170315e-05
3.766,-3.194313913706465e-05
3.767,-3.24066671685387e-05
3.768,-3.195568760190094e-05
3.769,-3.329839136847352e-05
3.77,-3.373314488750138e-05
3.771,-3.514792330416275e-05
3.772,-3.6121119279564967e-05
3.773,-3.562367815117995e-05
3.774,-3.532233498674542e-05
3.775,-3.4883582198542005e-05
3.776,-3.407789797265712e-05
3.777,-3.288372854806063e-05
3.778,-3.1590745206256275e-05
3.779,-3.17019844362546e-05
3.78,-3.0234613893785746e-05
3.781,-2.881922858470313e-05
3.782,-2.699774961687481e-05
3.783,-2.322015086926278e-05
3.784,-2.1940359429021438e-05
3.785,-1.9511751608770844e-05
3.786,-2.09826924043332e-05
3.787,-2.299254369268514e-05
3.788,-2.0368502302727358e-05
3.789,-1.7623534317741907e-05
3.79,-1.6455559534492227e-05
3.791,-1.624792278996957e-05
3.792,-1.6371078053002087e-05
3.793,-1.5685315218033214e-05
3.794,-1.58442838224296e-05
3.795,-1.589901504738119e-05
3.796,-1.1302113901422573e-05
3.797,-1.2211786785634323e-05
3.798,-1.3295384649694482e-05
3.799,-1.1332177652138518e-05
3.8,-1.061513266078925e-05
3.801,-8.151538713514567e-06
3.802,-6.362415259723401e-06
3.803,-4.780739326323092e-06
3.804,-3.2486340223306224e-06
3.805,-2.5137628916357577e-06
3.806,-3.0252615429314865e-06
3.807,-3.0295980744366563e-06
3.808,-1.1667765068542377e-06
3.809,-1.6727526894080512e-07
3.81,-5.004323479753832e-08
3.811,1.8782373194459468e-06
3.812,1.5225576425090153e-06
3.813,5.977586827949622e-07
3.814,9.257338842420755e-07
3.815,8.320469752315061e-07
3.816,1.6424365226760611e-06
3.817,2.379699555890428e-06
3.818,3.4613972127489186e-06
3.819,2.298709211436944e-06
3.82,3.9659455435067035e-07
3.821,7.552159103546043e-07
3.822,-9.276165102587977e-07
3.823,-3.2533981333165523e-06
3.824,-2.9198116688668086e-06
3.825,-2.4181052026106923e-06
3.826,-2.1314832386218715e-06
3.827,-3.734891312269931e-06
3.828,-5.896371510614438e-06
3.829,-5.479924010873063e-06
3.83,-4.849564479774579e-06
3.831,-6.774056882253085e-06
3.832,-8.331660129436647e-06
3.833,-4.4141798829557866e-06
3.834,-3.829674902643887e-06
3.835,-6.503325847588973e-06
3.836,-5.976212985828895e-06
3.837,-5.502034423731253e-06
3.838,-4.442086707151749e-06
3.839,-2.1590816283431166e-06
3.84,-1.010548371441543e-06
3.841,-1.6426413503207214e-06
3.842,-1.8851293451004225e-06
3.843,-2.048186526656401e-06
3.844,-3.121363274162502e-06
3.845,-4.074820450477335e-06
3.846,-6.6626090341230475e-06
3.847,-7.327512754252533e-06
3.848,-8.506783567064614e-06
3.849,-1.2438015101601471e-05
3.85,-1.0364427762554557e-05
3.851,-7.938973167726177e-06
3.852,-1.202688057179112e-05
3.853,-1.4406526961441738e-05
3.854,-1.3268772375482647e-05
3.855,-1.3615120390996544e-05
3.856,-1.2655206252964682e-05
3.857,-1.0504161069267802e-05
3.858,-1.2880346103596427e-05
3.859,-1.3103810204423191e-05
3.86,-1.0095624493508852e-05
3.861,-9.078030153277895e-06
3.862,-5.37513910931264e-06
3.863,-3.913790907893976e-06
3.864,-4.0241184844437265e-06
3.865,-2.639421405137884e-06
3.866,-2.3950803255051288e-06
3.867,-1.6264468662973e-06
3.868,-1.5658721395336307e-06
3.869,-1.1392516586203896e-06
3.87,-4.6262244535496686e-07
3.871,-9.394166903799587e-07
3.872,-7.58937191561708e-07
3.873,-9.964735392570423e-07
3.874,-2.1524442614335413e-07
3.875,2.993325261943167e-08
3.876,-3.1236321175282523e-07
3.877,2.0412321866520658e-07
3.878,1.7693466078786205e-08
3.879,-4.46046178935431e-07
3.88,6.226950794038327e-07
3.881,2.716889744517909e-06
3.882,5.139976515090232e-07
3.883,1.1794177196296833e-06
3.884,7.071584710998125e-06
3.885,8.24794094177376e-06
3.886,5.070860211023076e-06
3.887,3.212593383704665e-06
3.888,4.25844765280358e-06
3.889,1.8076854529034663e-06
3.89,3.0719930873109026e-06
3.891,8.071766198533459e-06
3.892,6.03082515175158e-06
3.893,3.770447542953635e-06
3.894,5.803740211527529e-06
3.895,7.2313437183521684e-06
3.896,7.439268900713721e-06
3.897,6.999335255786488e-06
3.898,6.972264841125864e-06
3.899,7.013048599404673e-06
3.9,6.577814841165861e-06
3.901,6.1311558901141645e-06
3.902,7.152755474331707e-06
3.903,6.04222831412431e-06
3.904,9.213276033902634e-07
3.905,-2.6693948114972536e-07
3.906,-1.4622817458139554e-06
3.907,-3.3936969728533974e-06
3.908,-4.087754956625643e-06
3.909,-8.077418166883437e-06
3.91,-1.2110125039990366e-05
3.911,-1.045395343421122e-05
3.912,-8.70095703641298e-06
3.913,-1.0867184104098135e-05
3.914,-1.1689381898070609e-05
3.915,-1.2718884976155187e-05
3.916,-1.3213604201800356e-05
3.917,-1.3029310702643039e-05
3.918,-1.211150213429504e-05
3.919,-1.188903359224853e-05
3.92,-1.2870409808323619e-05
3.921,-1.3743214812719753e-05
3.922,-1.547666710422125e-05
3.923,-1.602680995413703e-05
3.924,-1.674345308328517e-05
3.925,-1.807773473595597e-05
3.926,-2.0889109346961498e-05
3.927,-1.9850692996686113e-05
3.928,-2.0052193329021958e-05
3.929,-2.230006243399509e-05
3.93,-2.0514971784986185e-05
3.931,-2.0327141939993058e-05
3.932,-2.0470395915472724e-05
3.933,-1.8875990244594593e-05
3.934,-1.8467283532153828e-05
3.935,-1.6956130540812848e-05
3.936,-1.8941571656008883e-05
3.937,-2.2010978242280608e-05
3.938,-1.954338396191898e-05
3.939,-1.9514353657952712e-05
3.94,-1.880147881643721e-05
3.941,-1.828948599407789e-05
3.942,-1.777401882694597e-05
3.943,-1.6563392244035274e-05
3.944,-1.5577978435131303e-05
3.945,-1.3347306171131042e-05
3.946,-1.3805365876237628e-05
3.947,-1.238494161385847e-05
3.948,-9.411980589698667e-06
3.949,-1.1301026843960149e-05
3.95,-1.1552583558436534e-05
3.951,-9.852953061909557e-06
3.952,-1.1276686573535404e-05
3.953,-9.39132617184131e-06
3.954,-7.163714999909007e-06
3.955,-7.36685772718721e-06
3.956,-6.286183384486793e-06
3.957,-5.324121871411845e-06
3.958,-4.502147647044024e-06
3.959,-2.859832874754699e-06
3.96,-1.850926359363718e-06
3.961,-7.369577800116726e-07
3.962,-3.792801507189983e-07
3.963,-3.3073856021357404e-07
3.964,1.071756935172827e-06
3.965,1.9125893768581732e-06
3.966,1.3998597089265847e-06
3.967,1.2644568354883195e-06
3.968,3.558672152278397e-07
3.969,-4.064674380687812e-06
3.97,-5.232673292295184e-06
3.971,-4.589221473589024e-06
3.972,-5.68885885855348e-06
3.973,-6.105254823434059e-06
3.974,-7.433851723082061e-06
3.975,-8.091085166532788e-06
3.976,-8.710330132658606e-06
3.977,-8.535233949041407e-06
3.978,-8.011505649133868e-06
3.979,-8.078471612040378e-06
3.98,-8.461741565671145e-06
3.981,-1.0268151529611145e-05
3.982,-1.1183789133012665e-05
3.983,-1.2975419046674053e-05
3.984,-1.3395089039393197e-05
3.985,-1.4387195114478374e-05
3.986,-1.8496896248753646e-05
3.987,-2.0378556138307065e-05
3.988,-1.840288395597572e-05
3.989,-1.7761648475138308e-05
3.99,-2.166921733516737e-05
3.991,-2.2260665689678145e-05
3.992,-2.0086728281957073e-05
3.993,-2.150635315027238e-05
3.994,-2.1077978570836608e-05
3.995,-1.9850842053574263e-05
3.996,-2.055761399752903e-05
3.997,-2.0409433995467707e-05
3.998,-2.1794050821697025e-05
3.999,-2.2877288894169002e-05
4.0,-2.2507560518444467e-05
4.001,-2.1322693292596008e-05
4.002,-2.2758014696392457e-05
4.003,-2.6054479546469024e-05
4.004,-2.7465661174332113e-05
4.005,-2.6362643650849093e-05
4.006,-2.4336211358745486e-05
4.007,-2.4896173086527065e-05
4.008,-2.5368108252567492e-05
4.009,-2.6288210671468294e-05
4.01,-2.739717002395677e-05
4.011,-2.6034133785446492e-05
4.012,-2.4431720967030855e-05
4.013,-2.2912830464422294e-05
4.014,-2.1889643335716954e-05
4.015,-2.106482020614963e-05
4.016,-2.0034510304999776e-05
4.017,-1.949248190577645e-05
4.018,-1.8134505520350108e-05
4.019,-1.6662099109569758e-05
4.02,-1.548488011705663e-05
4.021,-1.4421036969044069e-05
4.022,-1.3595785318178093e-05
4.023,-1.243805021888799e-05
4.024,-1.107594944347363e-05
4.025,-1.003188741665588e-05
4.026,-1.1118162870936352e-05
4.027,-1.143392921484336e-05
4.028,-1.0864134333791217e-05
4.029,-1.0980740785818253e-05
4.03,-1.1646142176348846e-05
4.031,-1.1718311420306657e-05
4.032,-1.1856905934334409e-05
4.033,-1.1529366971206523e-05
4.034,-1.0216018937824304e-05
4.035,-9.513307748492165e-06
4.036,-8.934596117900701e-06
4.037,-9.108315051814195e-06
4.038,-9.873694120364444e-06
4.039,-8.774690170236289e-06
4.04,-7.35304001279877e-06
4.041,-7.041526209813709e-06
4.042,-7.358537468932159e-06
4.043,-8.00482453459301e-06
4.044,-7.963024629958598e-06
4.045,-8.30010207470844e-06
4.046,-9.67239540188316e-06
4.047,-9.232543712710265e-06
4.048,-6.6372533309005416e-06
4.049,-7.654710371693995e-06
4.05,-1.0770472063574274e-05
4.051,-1.1190877794242742e-05
4.052,-1.0143380031992796e-05
4.053,-8.073652003775762e-06
4.054,-8.439814336984282e-06
4.055,-9.704562969033587e-06
4.056,-8.92630816553187e-06
4.057,-8.450598993149134e-06
4.058,-9.903083225421776e-06
4.059,-9.285042179210284e-06
4.06,-7.072174323940109e-06
4.061,-1.1716835047058594e-05
4.062,-1.3953442191737467e-05
4.063,-1.4806301937127161e-05
4.064,-1.8198764609847463e-05
4.065,-1.846243561442169e-05
4.066,-1.7545169031813725e-05
4.067,-1.6716758652289614e-05
4.068,-1.8771583826550442e-05
4.069,-1.9527913244591574e-05
4.07,-1.972405157184275e-05
4.071,-2.0111960302842987e-05
4.072,-1.914933007395203e-05
4.073,-2.0291277862230325e-05
4.074,-2.0382862981389937e-05
4.075,-1.935346121685701e-05
4.076,-1.9013733551095672e-05
4.077,-2.1755523019296784e-05
4.078,-2.2054572484661025e-05
4.079,-1.957554394284868e-05
4.08,-1.9178496901934162e-05
4.081,-1.9525795119532658e-05
4.082,-2.0188381785237102e-05
4.083,-2.1050492831495984e-05
4.084,-2.091214226652561e-05
4.085,-2.0189068476343532e-05
4.086,-2.131022014643369e-05
4.087,-2.171322509128889e-05
4.088,-2.393857082235229e-05
4.089,-2.0523391879332383e-05
4.09,-1.7095785072967774e-05
4.091,-2.0870461222297776e-05
4.092,-2.244631328907242e-05
4.093,-2.1806175596114656e-05
4.094,-2.1518716940492e-05
4.095,-2.2842103919979365e-05
4.096,-2.31288356657428e-05
4.097,-2.153102030714029e-05
4.098,-1.9305351935770625e-05
4.099,-2.0817150022008163e-05
4.1,-2.4143018410385594e-05
4.101,-2.2671931534487412e-05
4.102,-1.88048172497861e-05
4.103,-1.525293461440303e-05
4.104,-1.4835504300151373e-05
4.105,-1.797711556681612e-05
4.106,-1.8805400184455947e-05
4.107,-1.644934119343765e-05
4.108,-1.1838399122973157e-05
4.109,-9.302426965732669e-06
4.11,-1.0272148590859656e-05
4.111,-9.879831037336636e-06
4.112,-8.959717258082423e-06
4.113,-6.3478157837292985e-06
4.114,-5.480763814217112e-06
4.115,-5.093670223713863e-06
4.116,-4.217071396932184e-06
4.117,-3.3733545367002066e-06
