0,-2.67E-05
0.001,-2.95E-05
0.002,-3.21E-05
0.003,-3.44E-05
0.004,-3.51E-05
0.005,-3.55E-05
0.006,-3.59E-05
0.007,-3.67E-05
0.008,-3.62E-05
0.009,-3.46E-05
0.01,-3.36E-05
0.011,-3.36E-05
0.012,-3.36E-05
0.013,-3.39E-05
0.014,-3.46E-05
0.015,-3.40E-05
0.016,-3.29E-05
0.017,-3.32E-05
0.018,-3.31E-05
0.019,-3.28E-05
0.02,-3.27E-05
0.021,-3.12E-05
0.022,-3.01E-05
0.023,-2.75E-05
0.024,-2.67E-05
0.025,-2.69E-05
0.026,-2.58E-05
0.027,-2.51E-05
0.028,-2.34E-05
0.029,-2.33E-05
0.03,-2.37E-05
0.031,-2.52E-05
0.032,-2.83E-05
0.033,-2.97E-05
0.034,-2.79E-05
0.035,-2.59E-05
0.036,-2.53E-05
0.037,-2.57E-05
0.038,-2.28E-05
0.039,-1.90E-05
0.04,-1.67E-05
0.041,-1.35E-05
0.042,-1.09E-05
0.043,-9.29E-06
0.044,-9.39E-06
0.045,-8.16E-06
0.046,-6.36E-06
0.047,-4.86E-06
0.048,-5.29E-06
0.049,-7.60E-06
0.05,-6.97E-06
0.051,-6.97E-06
0.052,-7.51E-06
0.053,-8.91E-06
0.054,-1.08E-05
0.055,-1.15E-05
0.056,-1.20E-05
0.057,-1.37E-05
0.058,-1.61E-05
0.059,-1.79E-05
0.06,-1.99E-05
0.061,-2.19E-05
0.062,-2.36E-05
0.063,-2.35E-05
0.064,-2.31E-05
0.065,-2.36E-05
0.066,-2.30E-05
0.067,-2.26E-05
0.068,-2.26E-05
0.069,-2.12E-05
0.07,-1.98E-05
0.071,-1.93E-05
0.072,-1.96E-05
0.073,-2.28E-05
0.074,-2.39E-05
0.075,-2.35E-05
0.076,-2.56E-05
0.077,-2.76E-05
0.078,-2.82E-05
0.079,-2.93E-05
0.08,-3.12E-05
0.081,-3.20E-05
0.082,-3.24E-05
0.083,-3.28E-05
0.084,-3.30E-05
0.085,-3.34E-05
0.086,-3.27E-05
0.087,-3.17E-05
0.088,-3.03E-05
0.089,-2.84E-05
0.09,-3.06E-05
0.091,-2.93E-05
0.092,-2.62E-05
0.093,-2.89E-05
0.094,-2.90E-05
0.095,-2.77E-05
0.096,-2.58E-05
0.097,-2.50E-05
0.098,-2.51E-05
0.099,-2.13E-05
0.1,-1.70E-05
0.101,-1.47E-05
0.102,-1.37E-05
0.103,-1.18E-05
0.104,-1.03E-05
0.105,-1.07E-05
0.106,-9.05E-06
0.107,-8.75E-06
0.108,-9.80E-06
0.109,-9.80E-06
0.11,-9.94E-06
0.111,-1.06E-05
0.112,-1.13E-05
0.113,-1.31E-05
0.114,-1.26E-05
0.115,-1.06E-05
0.116,-9.80E-06
0.117,-9.27E-06
0.118,-1.02E-05
0.119,-7.62E-06
0.12,-5.14E-06
0.121,-5.26E-06
0.122,-4.91E-06
0.123,-5.99E-06
0.124,-3.92E-06
0.125,-9.79E-07
0.126,-7.53E-07
0.127,-1.03E-06
0.128,-1.70E-06
0.129,-4.54E-07
0.13,-1.00E-06
0.131,-2.75E-06
0.132,-4.10E-06
0.133,-5.06E-06
0.134,-5.42E-06
0.135,-7.17E-06
0.136,-7.17E-06
0.137,-8.19E-06
0.138,-8.19E-06
0.139,-8.40E-06
0.14,-9.59E-06
0.141,-9.03E-06
0.142,-9.99E-06
0.143,-8.97E-06
0.144,-8.39E-06
0.145,-8.28E-06
0.146,-7.98E-06
0.147,-7.64E-06
0.148,-6.62E-06
0.149,-6.15E-06
0.15,-4.16E-06
0.151,-4.78E-06
0.152,-5.99E-06
0.153,-7.07E-06
0.154,-6.21E-06
0.155,-5.15E-06
0.156,-6.06E-06
0.157,-6.70E-06
0.158,-1.02E-05
0.159,-1.13E-05
0.16,-8.73E-06
0.161,-5.29E-06
0.162,-7.79E-06
0.163,-9.27E-06
0.164,-6.96E-06
0.165,-7.49E-06
0.166,-7.28E-06
0.167,-5.64E-06
0.168,-3.57E-06
0.169,-2.63E-06
0.17,-3.30E-06
0.171,-5.55E-06
0.172,-6.24E-06
0.173,-5.02E-06
0.174,-3.19E-06
0.175,-4.43E-06
0.176,-4.84E-06
0.177,-4.16E-06
0.178,-4.72E-06
0.179,-4.17E-06
0.18,-4.16E-06
0.181,-1.43E-06
0.182,-3.35E-07
0.183,-9.14E-08
0.184,1.09E-06
0.185,7.17E-07
0.186,-4.76E-07
0.187,-1.25E-06
0.188,-1.54E-06
0.189,-1.98E-06
0.19,-2.33E-06
0.191,-2.92E-06
0.192,-2.12E-06
0.193,-2.63E-06
0.194,-3.05E-06
0.195,-2.81E-06
0.196,-1.97E-06
0.197,-6.71E-07
0.198,6.00E-07
0.199,2.58E-06
0.2,2.31E-06
0.201,2.55E-06
0.202,2.98E-06
0.203,2.49E-06
0.204,1.81E-06
0.205,1.07E-06
0.206,1.53E-06
0.207,2.44E-06
0.208,1.66E-06
0.209,1.23E-06
0.21,4.87E-07
0.211,-2.85E-06
0.212,-1.99E-06
0.213,-2.04E-06
0.214,-2.63E-06
0.215,-1.41E-06
0.216,-3.11E-06
0.217,-4.75E-06
0.218,-4.76E-06
0.219,-4.44E-06
0.22,-5.50E-06
0.221,-5.11E-06
0.222,-5.25E-06
0.223,-5.89E-06
0.224,-5.92E-06
0.225,-6.81E-06
0.226,-7.47E-06
0.227,-7.61E-06
0.228,-7.85E-06
0.229,-9.31E-06
0.23,-8.14E-06
0.231,-8.47E-06
0.232,-1.03E-05
0.233,-1.13E-05
0.234,-1.12E-05
0.235,-1.09E-05
0.236,-1.42E-05
0.237,-1.52E-05
0.238,-1.52E-05
0.239,-1.71E-05
0.24,-1.83E-05
0.241,-1.91E-05
0.242,-2.00E-05
0.243,-1.97E-05
0.244,-1.87E-05
0.245,-1.83E-05
0.246,-1.94E-05
0.247,-1.87E-05
0.248,-1.62E-05
0.249,-1.57E-05
0.25,-1.72E-05
0.251,-1.99E-05
0.252,-1.83E-05
0.253,-1.64E-05
0.254,-1.66E-05
0.255,-1.68E-05
0.256,-1.86E-05
0.257,-1.93E-05
0.258,-1.61E-05
0.259,-1.47E-05
0.26,-1.49E-05
0.261,-1.44E-05
0.262,-1.45E-05
0.263,-1.31E-05
0.264,-1.19E-05
0.265,-1.14E-05
0.266,-1.19E-05
0.267,-1.09E-05
0.268,-1.06E-05
0.269,-1.06E-05
0.27,-1.08E-05
0.271,-1.32E-05
0.272,-1.32E-05
0.273,-1.13E-05
0.274,-9.47E-06
0.275,-8.52E-06
0.276,-8.39E-06
0.277,-8.36E-06
0.278,-6.84E-06
0.279,-6.38E-06
0.28,-5.02E-06
0.281,-2.77E-06
0.282,-3.58E-06
0.283,-4.20E-06
0.284,-5.56E-06
0.285,-6.78E-06
0.286,-7.69E-06
0.287,-6.23E-06
0.288,-5.28E-06
0.289,-7.73E-06
0.29,-7.93E-06
0.291,-8.81E-06
0.292,-1.02E-05
0.293,-1.15E-05
0.294,-1.22E-05
0.295,-1.23E-05
0.296,-1.51E-05
0.297,-1.68E-05
0.298,-1.65E-05
0.299,-1.82E-05
0.3,-1.90E-05
0.301,-1.98E-05
0.302,-2.11E-05
0.303,-2.18E-05
0.304,-2.18E-05
0.305,-2.14E-05
0.306,-2.16E-05
0.307,-2.23E-05
0.308,-2.45E-05
0.309,-2.38E-05
0.31,-2.17E-05
0.311,-2.35E-05
0.312,-2.62E-05
0.313,-2.64E-05
0.314,-2.59E-05
0.315,-2.67E-05
0.316,-2.69E-05
0.317,-2.70E-05
0.318,-2.76E-05
0.319,-2.96E-05
0.32,-2.86E-05
0.321,-2.61E-05
0.322,-2.75E-05
0.323,-2.71E-05
0.324,-2.45E-05
0.325,-2.34E-05
0.326,-2.34E-05
0.327,-2.31E-05
0.328,-2.36E-05
0.329,-2.27E-05
0.33,-2.25E-05
0.331,-2.46E-05
0.332,-2.44E-05
0.333,-2.16E-05
0.334,-1.88E-05
0.335,-1.94E-05
0.336,-1.72E-05
0.337,-1.58E-05
0.338,-1.76E-05
0.339,-1.59E-05
0.34,-1.41E-05
0.341,-1.30E-05
0.342,-1.21E-05
0.343,-1.14E-05
0.344,-1.11E-05
0.345,-1.14E-05
0.346,-1.14E-05
0.347,-1.13E-05
0.348,-1.17E-05
0.349,-1.10E-05
0.35,-1.11E-05
0.351,-1.17E-05
0.352,-1.10E-05
0.353,-1.14E-05
0.354,-1.10E-05
0.355,-1.09E-05
0.356,-1.14E-05
0.357,-1.09E-05
0.358,-1.16E-05
0.359,-1.23E-05
0.36,-1.27E-05
0.361,-1.44E-05
0.362,-1.47E-05
0.363,-1.39E-05
0.364,-1.46E-05
0.365,-1.50E-05
0.366,-1.53E-05
0.367,-1.52E-05
0.368,-1.52E-05
0.369,-1.51E-05
0.37,-1.47E-05
0.371,-1.58E-05
0.372,-1.64E-05
0.373,-1.69E-05
0.374,-1.87E-05
0.375,-1.91E-05
0.376,-2.00E-05
0.377,-2.13E-05
0.378,-2.20E-05
0.379,-2.59E-05
0.38,-2.68E-05
0.381,-2.73E-05
0.382,-2.64E-05
0.383,-2.33E-05
0.384,-2.41E-05
0.385,-2.36E-05
0.386,-2.34E-05
0.387,-2.25E-05
0.388,-2.37E-05
0.389,-2.47E-05
0.39,-2.40E-05
0.391,-2.59E-05
0.392,-2.61E-05
0.393,-2.68E-05
0.394,-2.67E-05
0.395,-2.68E-05
0.396,-2.79E-05
0.397,-2.81E-05
0.398,-2.64E-05
0.399,-2.61E-05
0.4,-2.65E-05
0.401,-2.40E-05
0.402,-2.31E-05
0.403,-2.58E-05
0.404,-2.70E-05
0.405,-2.08E-05
0.406,-1.82E-05
0.407,-2.10E-05
0.408,-2.13E-05
0.409,-2.17E-05
0.41,-2.13E-05
0.411,-2.09E-05
0.412,-2.10E-05
0.413,-2.10E-05
0.414,-2.11E-05
0.415,-2.06E-05
0.416,-1.97E-05
0.417,-1.91E-05
0.418,-1.85E-05
0.419,-1.86E-05
0.42,-1.70E-05
0.421,-1.60E-05
0.422,-1.76E-05
0.423,-1.71E-05
0.424,-1.50E-05
0.425,-1.46E-05
0.426,-1.54E-05
0.427,-1.47E-05
0.428,-1.44E-05
0.429,-1.29E-05
0.43,-1.06E-05
0.431,-1.01E-05
0.432,-9.38E-06
0.433,-8.22E-06
0.434,-8.13E-06
0.435,-8.36E-06
0.436,-9.49E-06
0.437,-1.05E-05
0.438,-9.19E-06
0.439,-1.05E-05
0.44,-1.16E-05
0.441,-9.43E-06
0.442,-9.89E-06
0.443,-1.15E-05
0.444,-1.15E-05
0.445,-1.19E-05
0.446,-1.11E-05
0.447,-1.03E-05
0.448,-1.18E-05
0.449,-1.28E-05
0.45,-1.25E-05
0.451,-1.31E-05
0.452,-1.43E-05
0.453,-1.34E-05
0.454,-1.63E-05
0.455,-1.83E-05
0.456,-1.80E-05
0.457,-2.05E-05
0.458,-1.92E-05
0.459,-2.00E-05
0.46,-2.11E-05
0.461,-2.08E-05
0.462,-2.18E-05
0.463,-2.18E-05
0.464,-2.08E-05
0.465,-2.01E-05
0.466,-2.08E-05
0.467,-2.23E-05
0.468,-2.41E-05
0.469,-2.58E-05
0.47,-2.72E-05
0.471,-2.82E-05
0.472,-3.06E-05
0.473,-3.22E-05
0.474,-3.03E-05
0.475,-2.93E-05
0.476,-3.05E-05
0.477,-3.12E-05
0.478,-3.03E-05
0.479,-3.00E-05
0.48,-2.94E-05
0.481,-2.78E-05
0.482,-2.74E-05
0.483,-2.48E-05
0.484,-2.46E-05
0.485,-2.38E-05
0.486,-2.05E-05
0.487,-1.89E-05
0.488,-1.81E-05
0.489,-1.62E-05
0.49,-1.42E-05
0.491,-1.42E-05
0.492,-1.02E-05
0.493,-9.44E-06
0.494,-8.41E-06
0.495,-5.91E-06
0.496,-7.27E-06
0.497,-5.21E-06
0.498,-3.63E-06
0.499,-5.56E-06
0.5,-4.99E-06
0.501,-3.51E-06
0.502,-3.02E-06
0.503,-2.18E-06
0.504,-1.78E-06
0.505,-1.38E-06
0.506,-1.56E-06
0.507,-2.13E-07
0.508,6.81E-07
0.509,1.72E-06
0.51,1.38E-06
0.511,-4.58E-07
0.512,8.77E-07
0.513,3.04E-06
0.514,6.30E-06
0.515,8.10E-06
0.516,7.31E-06
0.517,6.81E-06
0.518,7.46E-06
0.519,6.56E-06
0.52,5.80E-06
0.521,5.20E-06
0.522,2.85E-06
0.523,1.37E-06
0.524,-3.15E-07
0.525,-3.29E-06
0.526,-6.43E-06
0.527,-9.12E-06
0.528,-1.16E-05
0.529,-1.26E-05
0.53,-1.55E-05
0.531,-1.98E-05
0.532,-2.31E-05
0.533,-2.61E-05
0.534,-2.89E-05
0.535,-3.13E-05
0.536,-3.32E-05
0.537,-3.52E-05
0.538,-3.62E-05
0.539,-3.73E-05
0.54,-3.79E-05
0.541,-3.85E-05
0.542,-3.82E-05
0.543,-3.79E-05
0.544,-3.76E-05
0.545,-3.68E-05
0.546,-3.69E-05
0.547,-3.71E-05
0.548,-3.65E-05
0.549,-3.68E-05
0.55,-3.90E-05
0.551,-3.85E-05
0.552,-3.62E-05
0.553,-3.66E-05
0.554,-3.78E-05
0.555,-3.76E-05
0.556,-3.77E-05
0.557,-3.61E-05
0.558,-3.56E-05
0.559,-3.70E-05
0.56,-3.40E-05
0.561,-3.23E-05
0.562,-2.97E-05
0.563,-2.66E-05
0.564,-2.32E-05
0.565,-2.07E-05
0.566,-2.04E-05
0.567,-1.68E-05
0.568,-1.41E-05
0.569,-1.10E-05
0.57,-6.72E-06
0.571,-5.58E-06
0.572,-4.31E-06
0.573,-2.65E-06
0.574,-5.99E-07
0.575,1.47E-06
0.576,4.05E-06
0.577,7.25E-06
0.578,9.38E-06
0.579,9.59E-06
0.58,8.83E-06
0.581,8.20E-06
0.582,7.83E-06
0.583,7.99E-06
0.584,5.67E-06
0.585,2.07E-06
0.586,8.93E-07
0.587,-4.42E-07
0.588,-2.65E-06
0.589,-4.45E-06
0.59,-6.90E-06
0.591,-8.49E-06
0.592,-1.01E-05
0.593,-1.25E-05
0.594,-1.37E-05
0.595,-1.52E-05
0.596,-1.75E-05
0.597,-1.87E-05
0.598,-2.01E-05
0.599,-2.27E-05
0.6,-2.46E-05
0.601,-2.73E-05
0.602,-3.03E-05
0.603,-3.24E-05
0.604,-3.49E-05
0.605,-3.73E-05
0.606,-4.00E-05
0.607,-4.29E-05
0.608,-4.63E-05
0.609,-4.87E-05
0.61,-5.17E-05
0.611,-5.51E-05
0.612,-5.88E-05
0.613,-6.20E-05
0.614,-6.36E-05
0.615,-6.53E-05
0.616,-6.59E-05
0.617,-6.55E-05
0.618,-6.34E-05
0.619,-6.21E-05
0.62,-5.92E-05
0.621,-5.48E-05
0.622,-5.02E-05
0.623,-4.36E-05
0.624,-3.74E-05
0.625,-3.01E-05
0.626,-2.30E-05
0.627,-1.66E-05
0.628,-9.22E-06
0.629,-1.02E-06
0.63,5.71E-06
0.631,1.34E-05
0.632,2.27E-05
0.633,2.82E-05
0.634,3.39E-05
0.635,3.95E-05
0.636,4.31E-05
0.637,4.62E-05
0.638,4.71E-05
0.639,4.88E-05
0.64,5.18E-05
0.641,5.31E-05
0.642,5.35E-05
0.643,5.37E-05
0.644,5.15E-05
0.645,4.69E-05
0.646,4.13E-05
0.647,3.64E-05
0.648,3.29E-05
0.649,3.04E-05
0.65,3.16E-05
0.651,3.31E-05
0.652,3.32E-05
0.653,3.38E-05
0.654,3.51E-05
0.655,3.44E-05
0.656,3.14E-05
0.657,3.47E-05
0.658,3.50E-05
0.659,3.08E-05
0.66,3.00E-05
0.661,2.74E-05
0.662,2.14E-05
0.663,1.82E-05
0.664,1.49E-05
0.665,7.20E-06
0.666,3.99E-06
0.667,-9.60E-07
0.668,-5.69E-06
0.669,-9.06E-06
0.67,-1.38E-05
0.671,-1.97E-05
0.672,-2.75E-05
0.673,-3.36E-05
0.674,-4.09E-05
0.675,-4.59E-05
0.676,-5.14E-05
0.677,-5.50E-05
0.678,-5.78E-05
0.679,-6.24E-05
0.68,-6.49E-05
0.681,-6.83E-05
0.682,-7.10E-05
0.683,-7.05E-05
0.684,-7.01E-05
0.685,-6.94E-05
0.686,-6.94E-05
0.687,-7.04E-05
0.688,-6.94E-05
0.689,-6.97E-05
0.69,-6.87E-05
0.691,-6.79E-05
0.692,-6.97E-05
0.693,-7.12E-05
0.694,-7.26E-05
0.695,-7.31E-05
0.696,-7.45E-05
0.697,-7.51E-05
0.698,-7.39E-05
0.699,-7.21E-05
0.7,-7.13E-05
0.701,-7.11E-05
0.702,-6.85E-05
0.703,-6.48E-05
0.704,-6.06E-05
0.705,-5.71E-05
0.706,-5.36E-05
0.707,-4.95E-05
0.708,-4.43E-05
0.709,-3.93E-05
0.71,-3.55E-05
0.711,-2.96E-05
0.712,-2.51E-05
0.713,-2.25E-05
0.714,-1.93E-05
0.715,-1.42E-05
0.716,-8.34E-06
0.717,-5.28E-06
0.718,-4.88E-06
0.719,-3.60E-06
0.72,-7.79E-07
0.721,-2.02E-06
0.722,-2.95E-06
0.723,-1.09E-06
0.724,-2.61E-06
0.725,-4.86E-06
0.726,-4.89E-06
0.727,-7.86E-06
0.728,-1.12E-05
0.729,-1.00E-05
0.73,-1.25E-05
0.731,-1.62E-05
0.732,-1.56E-05
0.733,-1.75E-05
0.734,-1.92E-05
0.735,-2.07E-05
0.736,-2.32E-05
0.737,-2.22E-05
0.738,-2.23E-05
0.739,-2.54E-05
0.74,-2.56E-05
0.741,-2.44E-05
0.742,-2.76E-05
0.743,-3.10E-05
0.744,-2.97E-05
0.745,-2.84E-05
0.746,-2.91E-05
0.747,-2.92E-05
0.748,-2.93E-05
0.749,-3.00E-05
0.75,-3.23E-05
0.751,-3.46E-05
0.752,-3.49E-05
0.753,-3.61E-05
0.754,-3.85E-05
0.755,-4.06E-05
0.756,-4.40E-05
0.757,-4.42E-05
0.758,-4.27E-05
0.759,-4.53E-05
0.76,-4.60E-05
0.761,-4.48E-05
0.762,-4.42E-05
0.763,-4.14E-05
0.764,-3.68E-05
0.765,-3.24E-05
0.766,-3.09E-05
0.767,-2.93E-05
0.768,-2.68E-05
0.769,-2.41E-05
0.77,-2.32E-05
0.771,-2.18E-05
0.772,-1.95E-05
0.773,-1.91E-05
0.774,-1.83E-05
0.775,-1.68E-05
0.776,-1.58E-05
0.777,-1.40E-05
0.778,-1.39E-05
0.779,-1.28E-05
0.78,-8.47E-06
0.781,-8.45E-06
0.782,-8.18E-06
0.783,-7.18E-06
0.784,-7.64E-06
0.785,-7.31E-06
0.786,-6.75E-06
0.787,-6.56E-06
0.788,-8.36E-06
0.789,-7.58E-06
0.79,-7.96E-06
0.791,-8.68E-06
0.792,-7.36E-06
0.793,-8.52E-06
0.794,-7.94E-06
0.795,-7.40E-06
0.796,-7.37E-06
0.797,-6.83E-06
0.798,-6.83E-06
0.799,-7.18E-06
0.8,-7.58E-06
0.801,-7.89E-06
0.802,-8.75E-06
0.803,-9.29E-06
0.804,-1.15E-05
0.805,-1.38E-05
0.806,-1.52E-05
0.807,-1.66E-05
0.808,-1.80E-05
0.809,-2.00E-05
0.81,-1.89E-05
0.811,-1.78E-05
0.812,-1.71E-05
0.813,-1.98E-05
0.814,-2.32E-05
0.815,-2.29E-05
0.816,-2.52E-05
0.817,-2.76E-05
0.818,-2.96E-05
0.819,-3.03E-05
0.82,-3.06E-05
0.821,-3.23E-05
0.822,-3.27E-05
0.823,-2.90E-05
0.824,-2.74E-05
0.825,-2.83E-05
0.826,-2.69E-05
0.827,-2.65E-05
0.828,-2.72E-05
0.829,-2.71E-05
0.83,-2.63E-05
0.831,-2.61E-05
0.832,-2.47E-05
0.833,-2.51E-05
0.834,-2.66E-05
0.835,-2.73E-05
0.836,-2.79E-05
0.837,-2.64E-05
0.838,-2.55E-05
0.839,-2.34E-05
0.84,-2.10E-05
0.841,-1.86E-05
0.842,-1.74E-05
0.843,-1.71E-05
0.844,-1.44E-05
0.845,-1.29E-05
0.846,-1.26E-05
0.847,-1.32E-05
0.848,-1.47E-05
0.849,-1.37E-05
0.85,-1.32E-05
0.851,-1.34E-05
0.852,-1.28E-05
0.853,-1.22E-05
0.854,-1.09E-05
0.855,-9.68E-06
0.856,-8.43E-06
0.857,-6.47E-06
0.858,-5.28E-06
0.859,-3.94E-06
0.86,-2.04E-06
0.861,-8.04E-07
0.862,2.30E-07
0.863,2.37E-06
0.864,3.34E-06
0.865,7.74E-07
0.866,1.02E-06
0.867,2.22E-06
0.868,2.50E-06
0.869,3.47E-06
0.87,3.02E-06
0.871,3.32E-06
0.872,3.36E-06
0.873,3.48E-06
0.874,2.75E-06
0.875,2.37E-06
0.876,1.91E-06
0.877,-9.10E-08
0.878,-4.05E-07
0.879,-7.77E-07
0.88,-6.47E-07
0.881,-2.05E-06
0.882,-8.48E-07
0.883,3.01E-06
0.884,1.64E-06
0.885,-2.16E-06
0.886,-4.53E-06
0.887,-4.58E-06
0.888,-2.27E-06
0.889,4.55E-07
0.89,-2.42E-07
0.891,-8.87E-07
0.892,-1.49E-06
0.893,-2.16E-06
0.894,-2.46E-06
0.895,-2.69E-06
0.896,-2.61E-06
0.897,-2.52E-06
0.898,-2.50E-06
0.899,-2.85E-06
0.9,-1.10E-06
0.901,-1.17E-06
0.902,-2.96E-07
0.903,-8.10E-07
0.904,-2.64E-06
0.905,-3.98E-06
0.906,-5.92E-06
0.907,-5.04E-06
0.908,-5.48E-06
0.909,-5.77E-06
0.91,-6.04E-06
0.911,-6.31E-06
0.912,-7.13E-06
0.913,-9.45E-06
0.914,-9.66E-06
0.915,-8.17E-06
0.916,-7.63E-06
0.917,-5.19E-06
0.918,-2.41E-07
0.919,3.39E-07
0.92,9.66E-07
0.921,4.67E-06
0.922,5.51E-06
0.923,5.15E-06
0.924,4.30E-06
0.925,2.88E-06
0.926,3.34E-06
0.927,4.72E-06
0.928,4.78E-06
0.929,4.27E-06
0.93,5.63E-06
0.931,6.07E-06
0.932,5.61E-06
0.933,5.52E-06
0.934,3.48E-06
0.935,3.56E-06
0.936,5.71E-06
0.937,6.82E-06
0.938,7.65E-06
0.939,8.79E-06
0.94,9.24E-06
0.941,8.42E-06
0.942,8.55E-06
0.943,8.35E-06
0.944,8.15E-06
0.945,8.48E-06
0.946,8.24E-06
0.947,8.65E-06
0.948,9.59E-06
0.949,8.96E-06
0.95,5.43E-06
0.951,6.47E-06
0.952,8.75E-06
0.953,6.94E-06
0.954,6.33E-06
0.955,5.08E-06
0.956,4.20E-06
0.957,4.38E-06
0.958,3.64E-06
0.959,2.58E-06
0.96,2.23E-06
0.961,1.01E-06
0.962,1.41E-07
0.963,-6.50E-07
0.964,-1.64E-06
0.965,-2.32E-06
0.966,-3.27E-06
0.967,-5.57E-06
0.968,-6.63E-06
0.969,-6.34E-06
0.97,-7.99E-06
0.971,-9.40E-06
0.972,-9.47E-06
0.973,-1.05E-05
0.974,-1.40E-05
0.975,-1.54E-05
0.976,-1.30E-05
0.977,-1.24E-05
0.978,-1.29E-05
0.979,-1.15E-05
0.98,-1.46E-05
0.981,-1.78E-05
0.982,-1.67E-05
0.983,-1.54E-05
0.984,-1.42E-05
0.985,-1.67E-05
0.986,-1.34E-05
0.987,-1.16E-05
0.988,-1.57E-05
0.989,-1.67E-05
0.99,-1.70E-05
0.991,-1.64E-05
0.992,-1.58E-05
0.993,-1.45E-05
0.994,-1.46E-05
0.995,-1.40E-05
0.996,-1.26E-05
0.997,-1.18E-05
0.998,-1.26E-05
0.999,-1.36E-05
1,-1.24E-05
1.001,-1.24E-05
1.002,-1.09E-05
1.003,-1.03E-05
1.004,-1.05E-05
1.005,-9.81E-06
1.006,-9.38E-06
1.007,-1.03E-05
1.008,-1.06E-05
1.009,-9.62E-06
1.01,-9.04E-06
1.011,-7.56E-06
1.012,-7.69E-06
1.013,-7.26E-06
1.014,-6.49E-06
1.015,-6.13E-06
1.016,-5.62E-06
1.017,-5.29E-06
1.018,-4.00E-06
1.019,-1.77E-06
1.02,-1.93E-06
1.021,-2.68E-06
1.022,-2.33E-06
1.023,-2.95E-06
1.024,-3.72E-06
1.025,-3.01E-06
1.026,-2.17E-06
1.027,-4.79E-06
1.028,-7.22E-06
1.029,-6.66E-06
1.03,-7.49E-06
1.031,-8.22E-06
1.032,-7.76E-06
1.033,-1.15E-05
1.034,-1.44E-05
1.035,-1.48E-05
1.036,-1.52E-05
1.037,-1.67E-05
1.038,-1.69E-05
1.039,-1.53E-05
1.04,-1.50E-05
1.041,-1.65E-05
1.042,-1.77E-05
1.043,-1.75E-05
1.044,-1.95E-05
1.045,-1.90E-05
1.046,-1.79E-05
1.047,-1.91E-05
1.048,-1.76E-05
1.049,-1.52E-05
1.05,-1.73E-05
1.051,-1.94E-05
1.052,-1.90E-05
1.053,-1.82E-05
1.054,-1.92E-05
1.055,-2.14E-05
1.056,-2.24E-05
1.057,-2.19E-05
1.058,-2.30E-05
1.059,-2.45E-05
1.06,-2.51E-05
1.061,-2.53E-05
1.062,-2.55E-05
1.063,-2.58E-05
1.064,-2.29E-05
1.065,-2.22E-05
1.066,-2.33E-05
1.067,-2.31E-05
1.068,-2.33E-05
1.069,-2.31E-05
1.07,-2.26E-05
1.071,-2.18E-05
1.072,-2.17E-05
1.073,-2.14E-05
1.074,-2.05E-05
1.075,-1.99E-05
1.076,-1.92E-05
1.077,-1.69E-05
1.078,-1.55E-05
1.079,-1.57E-05
1.08,-1.51E-05
1.081,-1.43E-05
1.082,-1.40E-05
1.083,-1.45E-05
1.084,-1.43E-05
1.085,-1.35E-05
1.086,-1.32E-05
1.087,-1.22E-05
1.088,-1.27E-05
1.089,-1.43E-05
1.09,-1.29E-05
1.091,-1.39E-05
1.092,-1.62E-05
1.093,-1.59E-05
1.094,-1.46E-05
1.095,-1.34E-05
1.096,-1.53E-05
1.097,-1.43E-05
1.098,-1.41E-05
1.099,-1.44E-05
1.1,-1.40E-05
1.101,-1.56E-05
1.102,-1.36E-05
1.103,-1.39E-05
1.104,-1.58E-05
1.105,-1.58E-05
1.106,-1.40E-05
1.107,-1.37E-05
1.108,-1.46E-05
1.109,-1.35E-05
1.11,-1.20E-05
1.111,-1.05E-05
1.112,-1.04E-05
1.113,-1.16E-05
1.114,-1.29E-05
1.115,-1.47E-05
1.116,-1.57E-05
1.117,-1.52E-05
1.118,-1.71E-05
1.119,-1.80E-05
1.12,-1.83E-05
1.121,-1.83E-05
1.122,-1.83E-05
1.123,-1.95E-05
1.124,-1.79E-05
1.125,-1.60E-05
1.126,-1.67E-05
1.127,-1.89E-05
1.128,-1.98E-05
1.129,-2.01E-05
1.13,-2.13E-05
1.131,-1.99E-05
1.132,-1.87E-05
1.133,-2.11E-05
1.134,-2.31E-05
1.135,-2.34E-05
1.136,-2.46E-05
1.137,-2.37E-05
1.138,-2.40E-05
1.139,-2.46E-05
1.14,-2.13E-05
1.141,-1.99E-05
1.142,-2.02E-05
1.143,-2.04E-05
1.144,-2.02E-05
1.145,-1.91E-05
1.146,-2.06E-05
1.147,-2.30E-05
1.148,-2.31E-05
1.149,-2.36E-05
1.15,-2.32E-05
1.151,-2.29E-05
1.152,-2.29E-05
1.153,-2.35E-05
1.154,-2.49E-05
1.155,-2.36E-05
1.156,-2.38E-05
1.157,-2.38E-05
1.158,-2.41E-05
1.159,-2.55E-05
1.16,-2.43E-05
1.161,-2.30E-05
1.162,-2.21E-05
1.163,-2.17E-05
1.164,-2.04E-05
1.165,-2.14E-05
1.166,-2.07E-05
1.167,-1.74E-05
1.168,-1.66E-05
1.169,-1.60E-05
1.17,-1.40E-05
1.171,-1.07E-05
1.172,-1.10E-05
1.173,-1.03E-05
1.174,-8.45E-06
1.175,-7.85E-06
1.176,-7.16E-06
1.177,-6.17E-06
1.178,-6.82E-06
1.179,-8.55E-06
1.18,-8.98E-06
1.181,-8.53E-06
1.182,-7.85E-06
1.183,-1.07E-05
1.184,-1.25E-05
1.185,-1.20E-05
1.186,-1.11E-05
1.187,-1.11E-05
1.188,-8.97E-06
1.189,-9.46E-06
1.19,-1.25E-05
1.191,-1.19E-05
1.192,-1.35E-05
1.193,-1.16E-05
1.194,-1.06E-05
1.195,-1.19E-05
1.196,-1.18E-05
1.197,-1.15E-05
1.198,-1.03E-05
1.199,-9.78E-06
1.2,-1.02E-05
1.201,-1.04E-05
1.202,-1.06E-05
1.203,-1.02E-05
1.204,-9.53E-06
1.205,-1.18E-05
1.206,-1.31E-05
1.207,-1.46E-05
1.208,-1.75E-05
1.209,-1.93E-05
1.21,-2.37E-05
1.211,-2.49E-05
1.212,-2.49E-05
1.213,-2.96E-05
1.214,-3.21E-05
1.215,-3.23E-05
1.216,-3.22E-05
1.217,-3.26E-05
1.218,-3.22E-05
1.219,-3.39E-05
1.22,-3.58E-05
1.221,-3.45E-05
1.222,-3.28E-05
1.223,-3.19E-05
1.224,-3.10E-05
1.225,-2.94E-05
1.226,-2.75E-05
1.227,-2.65E-05
1.228,-2.42E-05
1.229,-2.19E-05
1.23,-2.24E-05
1.231,-2.05E-05
1.232,-1.78E-05
1.233,-1.66E-05
1.234,-1.52E-05
1.235,-1.43E-05
1.236,-1.40E-05
1.237,-1.31E-05
1.238,-1.17E-05
1.239,-1.36E-05
1.24,-1.54E-05
1.241,-1.25E-05
1.242,-1.03E-05
1.243,-1.11E-05
1.244,-1.08E-05
1.245,-9.52E-06
1.246,-7.88E-06
1.247,-4.29E-06
1.248,-2.31E-06
1.249,-2.90E-06
1.25,-1.94E-06
1.251,-6.63E-07
1.252,1.78E-06
1.253,3.08E-06
1.254,3.43E-06
1.255,5.64E-06
1.256,8.23E-06
1.257,9.60E-06
1.258,9.06E-06
1.259,9.71E-06
1.26,1.05E-05
1.261,1.13E-05
1.262,1.10E-05
1.263,1.03E-05
1.264,1.16E-05
1.265,9.68E-06
1.266,7.62E-06
1.267,5.35E-06
1.268,6.90E-07
1.269,-1.29E-06
1.27,-2.92E-06
1.271,-9.11E-06
1.272,-1.43E-05
1.273,-1.68E-05
1.274,-2.05E-05
1.275,-2.41E-05
1.276,-2.64E-05
1.277,-2.86E-05
1.278,-3.11E-05
1.279,-3.24E-05
1.28,-3.36E-05
1.281,-3.44E-05
1.282,-3.37E-05
1.283,-3.44E-05
1.284,-3.38E-05
1.285,-3.27E-05
1.286,-3.50E-05
1.287,-3.78E-05
1.288,-3.80E-05
1.289,-3.75E-05
1.29,-3.82E-05
1.291,-3.87E-05
1.292,-3.91E-05
1.293,-3.96E-05
1.294,-3.98E-05
1.295,-3.94E-05
1.296,-4.05E-05
1.297,-3.92E-05
1.298,-3.82E-05
1.299,-3.94E-05
1.3,-3.89E-05
1.301,-3.87E-05
1.302,-3.77E-05
1.303,-3.77E-05
1.304,-3.86E-05
1.305,-3.37E-05
1.306,-2.97E-05
1.307,-2.88E-05
1.308,-2.74E-05
1.309,-2.62E-05
1.31,-2.68E-05
1.311,-2.34E-05
1.312,-1.39E-05
1.313,-1.02E-05
1.314,-1.05E-05
1.315,-7.03E-06
1.316,-4.16E-06
1.317,-2.48E-06
1.318,9.83E-07
1.319,3.87E-06
1.32,6.63E-06
1.321,8.77E-06
1.322,1.01E-05
1.323,1.16E-05
1.324,1.26E-05
1.325,1.39E-05
1.326,1.35E-05
1.327,1.36E-05
1.328,1.21E-05
1.329,8.67E-06
1.33,6.92E-06
1.331,1.54E-06
1.332,-3.64E-06
1.333,-4.98E-06
1.334,-5.76E-06
1.335,-8.08E-06
1.336,-1.10E-05
1.337,-1.26E-05
1.338,-1.34E-05
1.339,-1.46E-05
1.34,-1.67E-05
1.341,-1.75E-05
1.342,-1.80E-05
1.343,-1.93E-05
1.344,-2.12E-05
1.345,-2.27E-05
1.346,-2.45E-05
1.347,-2.83E-05
1.348,-3.12E-05
1.349,-3.47E-05
1.35,-3.90E-05
1.351,-4.28E-05
1.352,-4.75E-05
1.353,-5.22E-05
1.354,-5.58E-05
1.355,-5.89E-05
1.356,-6.25E-05
1.357,-6.41E-05
1.358,-6.49E-05
1.359,-6.67E-05
1.36,-6.72E-05
1.361,-6.67E-05
1.362,-6.54E-05
1.363,-6.41E-05
1.364,-6.19E-05
1.365,-5.82E-05
1.366,-5.40E-05
1.367,-4.89E-05
1.368,-4.33E-05
1.369,-3.82E-05
1.37,-3.23E-05
1.371,-2.52E-05
1.372,-1.74E-05
1.373,-8.25E-06
1.374,1.23E-06
1.375,9.87E-06
1.376,1.87E-05
1.377,2.70E-05
1.378,3.42E-05
1.379,4.05E-05
1.38,4.13E-05
1.381,4.25E-05
1.382,4.70E-05
1.383,4.97E-05
1.384,5.27E-05
1.385,5.56E-05
1.386,5.49E-05
1.387,5.30E-05
1.388,5.20E-05
1.389,4.63E-05
1.39,4.01E-05
1.391,3.89E-05
1.392,3.83E-05
1.393,3.52E-05
1.394,3.15E-05
1.395,3.08E-05
1.396,3.28E-05
1.397,3.78E-05
1.398,4.01E-05
1.399,3.93E-05
1.4,3.91E-05
1.401,3.90E-05
1.402,3.83E-05
1.403,3.67E-05
1.404,3.62E-05
1.405,3.26E-05
1.406,2.70E-05
1.407,2.23E-05
1.408,1.81E-05
1.409,1.26E-05
1.41,7.14E-06
1.411,1.44E-06
1.412,-4.32E-06
1.413,-1.12E-05
1.414,-1.79E-05
1.415,-2.29E-05
1.416,-2.93E-05
1.417,-3.60E-05
1.418,-4.10E-05
1.419,-4.39E-05
1.42,-4.98E-05
1.421,-5.61E-05
1.422,-6.03E-05
1.423,-6.11E-05
1.424,-6.23E-05
1.425,-6.50E-05
1.426,-6.60E-05
1.427,-7.22E-05
1.428,-7.77E-05
1.429,-7.81E-05
1.43,-7.59E-05
1.431,-7.58E-05
1.432,-7.48E-05
1.433,-7.55E-05
1.434,-7.68E-05
1.435,-7.29E-05
1.436,-7.25E-05
1.437,-7.33E-05
1.438,-7.37E-05
1.439,-7.26E-05
1.44,-7.18E-05
1.441,-7.16E-05
1.442,-7.20E-05
1.443,-7.21E-05
1.444,-7.03E-05
1.445,-6.98E-05
1.446,-6.72E-05
1.447,-6.59E-05
1.448,-6.48E-05
1.449,-6.00E-05
1.45,-5.63E-05
1.451,-5.16E-05
1.452,-4.68E-05
1.453,-4.18E-05
1.454,-3.64E-05
1.455,-3.14E-05
1.456,-2.64E-05
1.457,-2.11E-05
1.458,-1.75E-05
1.459,-1.45E-05
1.46,-1.06E-05
1.461,-7.24E-06
1.462,-4.58E-06
1.463,-2.85E-06
1.464,-1.83E-06
1.465,-1.70E-06
1.466,-1.20E-06
1.467,-1.11E-06
1.468,-1.87E-06
1.469,-1.94E-06
1.47,-3.35E-06
1.471,-5.46E-06
1.472,-7.52E-06
1.473,-9.20E-06
1.474,-1.16E-05
1.475,-1.39E-05
1.476,-1.41E-05
1.477,-1.71E-05
1.478,-1.95E-05
1.479,-2.04E-05
1.48,-2.22E-05
1.481,-2.37E-05
1.482,-2.29E-05
1.483,-2.27E-05
1.484,-2.66E-05
1.485,-2.90E-05
1.486,-3.27E-05
1.487,-3.41E-05
1.488,-3.17E-05
1.489,-3.41E-05
1.49,-3.62E-05
1.491,-3.73E-05
1.492,-3.81E-05
1.493,-3.69E-05
1.494,-3.78E-05
1.495,-3.80E-05
1.496,-3.85E-05
1.497,-4.06E-05
1.498,-4.14E-05
1.499,-4.13E-05
1.5,-4.23E-05
1.501,-4.47E-05
1.502,-4.38E-05
1.503,-4.17E-05
1.504,-4.14E-05
1.505,-4.15E-05
1.506,-4.08E-05
1.507,-3.97E-05
1.508,-3.76E-05
1.509,-3.47E-05
1.51,-3.27E-05
1.511,-3.10E-05
1.512,-2.91E-05
1.513,-2.67E-05
1.514,-2.39E-05
1.515,-2.27E-05
1.516,-2.02E-05
1.517,-1.74E-05
1.518,-1.67E-05
1.519,-1.65E-05
1.52,-1.58E-05
1.521,-1.39E-05
1.522,-1.17E-05
1.523,-8.43E-06
1.524,-8.53E-06
1.525,-8.66E-06
1.526,-8.52E-06
1.527,-7.95E-06
1.528,-4.22E-06
1.529,-4.68E-06
1.53,-3.70E-06
1.531,-2.63E-06
1.532,-2.53E-06
1.533,-4.17E-07
1.534,-1.80E-06
1.535,-4.15E-06
1.536,-4.25E-06
1.537,-5.34E-06
1.538,-7.17E-06
1.539,-7.09E-06
1.54,-8.04E-06
1.541,-9.87E-06
1.542,-1.17E-05
1.543,-1.03E-05
1.544,-8.49E-06
1.545,-1.03E-05
1.546,-1.25E-05
1.547,-1.42E-05
1.548,-1.50E-05
1.549,-1.59E-05
1.55,-1.67E-05
1.551,-1.78E-05
1.552,-1.92E-05
1.553,-2.05E-05
1.554,-2.25E-05
1.555,-2.55E-05
1.556,-2.60E-05
1.557,-2.62E-05
1.558,-2.78E-05
1.559,-2.83E-05
1.56,-2.94E-05
1.561,-3.06E-05
1.562,-3.10E-05
1.563,-3.12E-05
1.564,-3.18E-05
1.565,-3.18E-05
1.566,-3.17E-05
1.567,-3.15E-05
1.568,-3.09E-05
1.569,-3.09E-05
1.57,-3.11E-05
1.571,-3.08E-05
1.572,-3.00E-05
1.573,-2.98E-05
1.574,-3.01E-05
1.575,-3.01E-05
1.576,-2.94E-05
1.577,-2.93E-05
1.578,-2.81E-05
1.579,-2.64E-05
1.58,-2.69E-05
1.581,-2.78E-05
1.582,-2.38E-05
1.583,-2.09E-05
1.584,-2.27E-05
1.585,-2.15E-05
1.586,-1.92E-05
1.587,-1.59E-05
1.588,-1.65E-05
1.589,-1.54E-05
1.59,-1.18E-05
1.591,-1.21E-05
1.592,-9.52E-06
1.593,-8.14E-06
1.594,-7.07E-06
1.595,-6.80E-06
1.596,-5.29E-06
1.597,-5.16E-06
1.598,-8.77E-06
1.599,-6.85E-06
1.6,-4.85E-06
1.601,-3.34E-06
1.602,-2.41E-06
1.603,-5.16E-06
1.604,-5.43E-06
1.605,-3.06E-06
1.606,-1.92E-06
1.607,-1.16E-06
1.608,-6.40E-07
1.609,-1.11E-06
1.61,-1.09E-07
1.611,-1.31E-07
1.612,-1.07E-06
1.613,-7.74E-07
1.614,-2.20E-06
1.615,-3.18E-06
1.616,-3.74E-06
1.617,-4.23E-06
1.618,-3.98E-06
1.619,-4.47E-06
1.62,-3.30E-06
1.621,-2.47E-06
1.622,-2.42E-06
1.623,-2.32E-06
1.624,-3.62E-06
1.625,-5.30E-06
1.626,-3.21E-06
1.627,3.92E-07
1.628,-1.32E-06
1.629,-2.25E-06
1.63,-3.47E-06
1.631,-6.55E-06
1.632,-8.03E-06
1.633,-7.13E-06
1.634,-8.08E-06
1.635,-8.82E-06
1.636,-1.02E-05
1.637,-1.29E-05
1.638,-1.02E-05
1.639,-1.12E-05
1.64,-1.30E-05
1.641,-1.15E-05
1.642,-1.04E-05
1.643,-8.90E-06
1.644,-9.40E-06
1.645,-1.10E-05
1.646,-1.14E-05
1.647,-1.02E-05
1.648,-7.56E-06
1.649,-5.03E-06
1.65,-6.23E-06
1.651,-7.95E-06
1.652,-6.76E-06
1.653,-5.74E-06
1.654,-6.40E-06
1.655,-7.32E-06
1.656,-6.81E-06
1.657,-5.66E-06
1.658,-4.68E-06
1.659,-3.87E-06
1.66,-3.63E-06
1.661,-2.67E-06
1.662,-1.88E-06
1.663,-1.05E-06
1.664,-1.68E-06
1.665,-5.65E-07
1.666,-1.07E-07
1.667,5.90E-07
1.668,3.02E-06
1.669,2.67E-06
1.67,3.32E-06
1.671,3.38E-06
1.672,3.41E-06
1.673,3.94E-06
1.674,3.75E-06
1.675,4.25E-06
1.676,4.07E-06
1.677,5.01E-06
1.678,6.40E-06
1.679,7.62E-06
1.68,7.89E-06
1.681,7.57E-06
1.682,9.15E-06
1.683,1.13E-05
1.684,1.24E-05
1.685,1.22E-05
1.686,1.11E-05
1.687,1.15E-05
1.688,1.18E-05
1.689,1.02E-05
1.69,8.32E-06
1.691,6.50E-06
1.692,5.77E-06
1.693,5.02E-06
1.694,3.34E-06
1.695,1.30E-06
1.696,3.79E-07
1.697,-1.40E-06
1.698,-1.83E-06
1.699,1.49E-07
1.7,2.87E-07
1.701,2.50E-06
1.702,3.49E-06
1.703,4.75E-07
1.704,2.71E-07
1.705,1.53E-06
1.706,5.16E-07
1.707,-3.34E-06
1.708,-4.41E-06
1.709,-3.12E-06
1.71,-5.48E-06
1.711,-8.31E-06
1.712,-1.03E-05
1.713,-1.18E-05
1.714,-1.27E-05
1.715,-1.13E-05
1.716,-1.10E-05
1.717,-1.39E-05
1.718,-1.45E-05
1.719,-1.22E-05
1.72,-1.16E-05
1.721,-1.39E-05
1.722,-1.29E-05
1.723,-1.36E-05
1.724,-1.54E-05
1.725,-1.33E-05
1.726,-1.46E-05
1.727,-1.52E-05
1.728,-1.49E-05
1.729,-1.61E-05
1.73,-1.59E-05
1.731,-1.53E-05
1.732,-1.48E-05
1.733,-1.38E-05
1.734,-1.29E-05
1.735,-1.25E-05
1.736,-1.21E-05
1.737,-1.15E-05
1.738,-1.01E-05
1.739,-8.31E-06
1.74,-8.34E-06
1.741,-8.11E-06
1.742,-7.51E-06
1.743,-6.50E-06
1.744,-5.76E-06
1.745,-6.09E-06
1.746,-6.28E-06
1.747,-5.26E-06
1.748,-4.86E-06
1.749,-5.52E-06
1.75,-5.86E-06
1.751,-6.72E-06
1.752,-5.49E-06
1.753,-5.48E-06
1.754,-7.45E-06
1.755,-6.58E-06
1.756,-5.02E-06
1.757,-5.54E-06
1.758,-6.22E-06
1.759,-3.33E-06
1.76,-2.50E-06
1.761,-1.23E-06
1.762,-3.88E-07
1.763,-3.01E-06
1.764,-3.36E-06
1.765,-3.67E-06
1.766,-3.58E-06
1.767,-4.68E-06
1.768,-4.97E-06
1.769,-5.89E-06
1.77,-6.58E-06
1.771,-7.16E-06
1.772,-9.67E-06
1.773,-8.64E-06
1.774,-8.44E-06
1.775,-9.66E-06
1.776,-1.14E-05
1.777,-1.33E-05
1.778,-1.05E-05
1.779,-8.29E-06
1.78,-9.61E-06
1.781,-1.06E-05
1.782,-1.10E-05
1.783,-1.09E-05
1.784,-1.21E-05
1.785,-1.40E-05
1.786,-1.64E-05
1.787,-1.67E-05
1.788,-1.64E-05
1.789,-2.08E-05
1.79,-2.29E-05
1.791,-2.29E-05
1.792,-2.35E-05
1.793,-2.41E-05
1.794,-2.51E-05
1.795,-2.27E-05
1.796,-2.03E-05
1.797,-1.95E-05
1.798,-1.91E-05
1.799,-1.93E-05
1.8,-1.90E-05
1.801,-1.78E-05
1.802,-1.67E-05
1.803,-1.70E-05
1.804,-1.81E-05
1.805,-1.73E-05
1.806,-1.57E-05
1.807,-1.64E-05
1.808,-1.68E-05
1.809,-1.68E-05
1.81,-1.59E-05
1.811,-1.43E-05
1.812,-1.50E-05
1.813,-1.43E-05
1.814,-1.31E-05
1.815,-1.30E-05
1.816,-1.22E-05
1.817,-1.25E-05
1.818,-1.41E-05
1.819,-1.42E-05
1.82,-1.42E-05
1.821,-1.47E-05
1.822,-1.10E-05
1.823,-8.82E-06
1.824,-1.09E-05
1.825,-8.19E-06
1.826,-4.62E-06
1.827,-3.39E-06
1.828,-4.55E-06
1.829,-5.52E-06
1.83,-3.73E-06
1.831,-3.87E-06
1.832,-4.22E-06
1.833,-4.44E-06
1.834,-5.12E-06
1.835,-5.33E-06
1.836,-5.43E-06
1.837,-4.95E-06
1.838,-5.48E-06
1.839,-3.96E-06
1.84,-2.91E-06
1.841,-3.78E-06
1.842,-2.69E-06
1.843,-2.56E-06
1.844,-3.78E-06
1.845,-3.92E-06
1.846,-5.65E-06
1.847,-6.39E-06
1.848,-5.68E-06
1.849,-6.76E-06
1.85,-8.78E-06
1.851,-9.41E-06
1.852,-1.01E-05
1.853,-9.59E-06
1.854,-9.71E-06
1.855,-8.66E-06
1.856,-7.34E-06
1.857,-1.05E-05
1.858,-9.92E-06
1.859,-8.94E-06
1.86,-9.18E-06
1.861,-8.14E-06
1.862,-8.87E-06
1.863,-1.00E-05
1.864,-1.23E-05
1.865,-1.27E-05
1.866,-1.42E-05
1.867,-1.53E-05
1.868,-1.49E-05
1.869,-1.62E-05
1.87,-1.51E-05
1.871,-1.81E-05
1.872,-1.98E-05
1.873,-1.76E-05
1.874,-1.77E-05
1.875,-1.75E-05
1.876,-1.81E-05
1.877,-1.81E-05
1.878,-1.81E-05
1.879,-2.05E-05
1.88,-2.27E-05
1.881,-2.14E-05
1.882,-1.93E-05
1.883,-1.87E-05
1.884,-1.94E-05
1.885,-1.96E-05
1.886,-1.84E-05
1.887,-1.70E-05
1.888,-1.62E-05
1.889,-1.59E-05
1.89,-1.50E-05
1.891,-1.53E-05
1.892,-1.54E-05
1.893,-1.60E-05
1.894,-1.69E-05
1.895,-1.44E-05
1.896,-1.15E-05
1.897,-1.27E-05
1.898,-1.33E-05
1.899,-1.35E-05
1.9,-1.26E-05
1.901,-9.19E-06
1.902,-6.66E-06
1.903,-6.48E-06
1.904,-6.26E-06
1.905,-4.93E-06
1.906,-6.78E-06
1.907,-3.12E-06
1.908,-8.23E-07
1.909,-2.99E-06
1.91,-9.92E-07
1.911,-5.31E-07
1.912,-4.97E-07
1.913,-1.19E-06
1.914,-1.83E-06
1.915,-2.92E-06
1.916,-1.68E-06
1.917,2.77E-07
1.918,-1.70E-07
1.919,-7.23E-07
1.92,-8.80E-07
1.921,-2.98E-08
1.922,-5.53E-07
1.923,-2.03E-06
1.924,-2.13E-06
1.925,-2.04E-06
1.926,-4.64E-06
1.927,-5.24E-06
1.928,-4.93E-06
1.929,-6.75E-06
1.93,-6.42E-06
1.931,-6.27E-06
1.932,-6.03E-06
1.933,-6.55E-06
1.934,-1.01E-05
1.935,-1.16E-05
1.936,-1.27E-05
1.937,-1.57E-05
1.938,-1.39E-05
1.939,-1.63E-05
1.94,-2.03E-05
1.941,-2.26E-05
1.942,-2.50E-05
1.943,-2.55E-05
1.944,-2.71E-05
1.945,-2.57E-05
1.946,-2.45E-05
1.947,-2.66E-05
1.948,-2.70E-05
1.949,-2.56E-05
1.95,-2.61E-05
1.951,-2.55E-05
1.952,-2.56E-05
1.953,-2.56E-05
1.954,-2.38E-05
1.955,-2.30E-05
1.956,-2.18E-05
1.957,-2.08E-05
1.958,-1.91E-05
1.959,-1.64E-05
1.96,-1.39E-05
1.961,-1.21E-05
1.962,-1.06E-05
1.963,-9.69E-06
1.964,-9.10E-06
1.965,-7.81E-06
1.966,-6.99E-06
1.967,-6.71E-06
1.968,-5.74E-06
1.969,-4.68E-06
1.97,-4.42E-06
1.971,-4.08E-06
1.972,-2.46E-06
1.973,-9.04E-07
1.974,9.78E-07
1.975,4.16E-06
1.976,2.62E-06
1.977,1.45E-06
1.978,4.55E-06
1.979,3.62E-06
1.98,4.07E-06
1.981,7.21E-06
1.982,1.03E-05
1.983,1.43E-05
1.984,1.66E-05
1.985,1.67E-05
1.986,1.88E-05
1.987,2.07E-05
1.988,1.78E-05
1.989,1.81E-05
1.99,1.76E-05
1.991,1.76E-05
1.992,1.68E-05
1.993,1.26E-05
1.994,1.16E-05
1.995,6.29E-06
1.996,4.24E-06
1.997,3.71E-06
1.998,-2.95E-07
1.999,-2.00E-06
2,-5.34E-06
2.001,-8.94E-06
2.002,-1.21E-05
2.003,-1.26E-05
2.004,-1.39E-05
2.005,-1.62E-05
2.006,-1.76E-05
2.007,-1.91E-05
2.008,-2.14E-05
2.009,-2.35E-05
2.01,-2.19E-05
2.011,-2.26E-05
2.012,-2.51E-05
2.013,-2.72E-05
2.014,-2.64E-05
2.015,-2.63E-05
2.016,-2.82E-05
2.017,-2.85E-05
2.018,-2.87E-05
2.019,-2.94E-05
2.02,-2.99E-05
2.021,-2.93E-05
2.022,-3.04E-05
2.023,-3.07E-05
2.024,-2.86E-05
2.025,-2.74E-05
2.026,-2.79E-05
2.027,-2.84E-05
2.028,-2.94E-05
2.029,-2.97E-05
2.03,-2.98E-05
2.031,-2.85E-05
2.032,-2.65E-05
2.033,-2.40E-05
2.034,-1.99E-05
2.035,-1.81E-05
2.036,-1.48E-05
2.037,-1.23E-05
2.038,-1.25E-05
2.039,-1.01E-05
2.04,-7.04E-06
2.041,-5.33E-06
2.042,-2.06E-06
2.043,1.54E-06
2.044,4.15E-06
2.045,6.63E-06
2.046,8.69E-06
2.047,1.08E-05
2.048,1.15E-05
2.049,1.39E-05
2.05,1.55E-05
2.051,1.46E-05
2.052,1.52E-05
2.053,1.45E-05
2.054,1.31E-05
2.055,1.25E-05
2.056,9.63E-06
2.057,7.40E-06
2.058,7.29E-06
2.059,5.11E-06
2.06,4.55E-06
2.061,2.97E-06
2.062,2.01E-07
2.063,2.47E-08
2.064,-1.39E-06
2.065,-2.20E-06
2.066,-2.27E-06
2.067,-2.46E-06
2.068,-4.54E-06
2.069,-5.63E-06
2.07,-8.55E-06
2.071,-1.54E-05
2.072,-1.61E-05
2.073,-1.77E-05
2.074,-2.16E-05
2.075,-2.32E-05
2.076,-2.88E-05
2.077,-3.23E-05
2.078,-3.32E-05
2.079,-3.61E-05
2.08,-3.94E-05
2.081,-4.12E-05
2.082,-4.43E-05
2.083,-4.72E-05
2.084,-4.90E-05
2.085,-5.02E-05
2.086,-4.94E-05
2.087,-5.09E-05
2.088,-5.40E-05
2.089,-5.39E-05
2.09,-5.24E-05
2.091,-5.06E-05
2.092,-4.80E-05
2.093,-4.46E-05
2.094,-4.04E-05
2.095,-3.56E-05
2.096,-3.01E-05
2.097,-2.71E-05
2.098,-1.99E-05
2.099,-9.19E-06
2.1,-1.08E-06
2.101,7.00E-06
2.102,1.48E-05
2.103,2.28E-05
2.104,2.93E-05
2.105,3.51E-05
2.106,4.10E-05
2.107,4.57E-05
2.108,4.84E-05
2.109,5.07E-05
2.11,5.27E-05
2.111,5.29E-05
2.112,5.42E-05
2.113,5.75E-05
2.114,5.71E-05
2.115,5.59E-05
2.116,5.30E-05
2.117,4.71E-05
2.118,4.31E-05
2.119,3.99E-05
2.12,3.73E-05
2.121,3.43E-05
2.122,3.55E-05
2.123,3.84E-05
2.124,3.81E-05
2.125,3.94E-05
2.126,4.15E-05
2.127,3.87E-05
2.128,3.43E-05
2.129,3.30E-05
2.13,3.12E-05
2.131,2.90E-05
2.132,2.70E-05
2.133,2.42E-05
2.134,2.04E-05
2.135,1.28E-05
2.136,1.01E-05
2.137,7.24E-06
2.138,2.12E-06
2.139,-1.61E-06
2.14,-6.45E-06
2.141,-9.38E-06
2.142,-1.37E-05
2.143,-1.76E-05
2.144,-2.22E-05
2.145,-3.05E-05
2.146,-3.79E-05
2.147,-4.11E-05
2.148,-4.47E-05
2.149,-4.88E-05
2.15,-5.22E-05
2.151,-5.62E-05
2.152,-5.90E-05
2.153,-6.09E-05
2.154,-6.20E-05
2.155,-6.35E-05
2.156,-6.33E-05
2.157,-6.34E-05
2.158,-6.18E-05
2.159,-5.99E-05
2.16,-5.96E-05
2.161,-5.88E-05
2.162,-5.87E-05
2.163,-5.80E-05
2.164,-5.71E-05
2.165,-5.65E-05
2.166,-5.67E-05
2.167,-5.57E-05
2.168,-5.59E-05
2.169,-5.75E-05
2.17,-5.85E-05
2.171,-5.90E-05
2.172,-5.95E-05
2.173,-5.78E-05
2.174,-5.54E-05
2.175,-5.56E-05
2.176,-5.40E-05
2.177,-5.19E-05
2.178,-4.76E-05
2.179,-4.29E-05
2.18,-3.93E-05
2.181,-3.51E-05
2.182,-3.31E-05
2.183,-2.99E-05
2.184,-2.64E-05
2.185,-2.08E-05
2.186,-1.47E-05
2.187,-1.29E-05
2.188,-1.19E-05
2.189,-8.48E-06
2.19,-6.60E-06
2.191,-8.17E-06
2.192,-6.68E-06
2.193,-5.29E-06
2.194,-6.08E-06
2.195,-5.12E-06
2.196,-5.87E-06
2.197,-5.92E-06
2.198,-5.95E-06
2.199,-8.72E-06
2.2,-8.92E-06
2.201,-9.80E-06
2.202,-1.18E-05
2.203,-1.47E-05
2.204,-1.85E-05
2.205,-1.82E-05
2.206,-1.82E-05
2.207,-1.98E-05
2.208,-2.14E-05
2.209,-2.34E-05
2.21,-2.48E-05
2.211,-2.65E-05
2.212,-2.69E-05
2.213,-2.52E-05
2.214,-2.58E-05
2.215,-2.70E-05
2.216,-2.68E-05
2.217,-2.57E-05
2.218,-2.51E-05
2.219,-2.66E-05
2.22,-2.70E-05
2.221,-2.63E-05
2.222,-2.62E-05
2.223,-2.61E-05
2.224,-2.86E-05
2.225,-3.16E-05
2.226,-3.06E-05
2.227,-2.93E-05
2.228,-3.00E-05
2.229,-2.98E-05
2.23,-2.94E-05
2.231,-2.99E-05
2.232,-3.04E-05
2.233,-2.82E-05
2.234,-2.89E-05
2.235,-3.02E-05
2.236,-2.79E-05
2.237,-2.51E-05
2.238,-2.29E-05
2.239,-2.10E-05
2.24,-1.94E-05
2.241,-1.62E-05
2.242,-1.33E-05
2.243,-1.20E-05
2.244,-9.17E-06
2.245,-1.15E-05
2.246,-1.05E-05
2.247,-6.61E-06
2.248,-6.00E-06
2.249,-3.84E-06
2.25,-4.66E-06
2.251,-5.14E-06
2.252,-4.13E-06
2.253,-4.32E-06
2.254,-5.01E-06
2.255,-4.43E-06
2.256,-3.52E-06
2.257,-2.81E-06
2.258,-1.37E-06
2.259,-1.92E-06
2.26,-2.31E-06
2.261,-2.32E-06
2.262,-2.94E-06
2.263,-2.93E-06
2.264,-2.61E-06
2.265,-4.32E-06
2.266,-5.49E-06
2.267,-6.74E-06
2.268,-9.44E-06
2.269,-1.04E-05
2.27,-1.18E-05
2.271,-1.04E-05
2.272,-9.11E-06
2.273,-9.64E-06
2.274,-9.45E-06
2.275,-1.03E-05
2.276,-9.08E-06
2.277,-9.64E-06
2.278,-1.05E-05
2.279,-1.05E-05
2.28,-1.34E-05
2.281,-1.72E-05
2.282,-1.79E-05
2.283,-1.64E-05
2.284,-1.77E-05
2.285,-1.74E-05
2.286,-1.70E-05
2.287,-1.99E-05
2.288,-2.15E-05
2.289,-2.12E-05
2.29,-1.95E-05
2.291,-1.83E-05
2.292,-1.90E-05
2.293,-2.17E-05
2.294,-2.54E-05
2.295,-2.41E-05
2.296,-2.26E-05
2.297,-2.38E-05
2.298,-2.36E-05
2.299,-2.50E-05
2.3,-2.38E-05
2.301,-2.04E-05
2.302,-1.77E-05
2.303,-1.77E-05
2.304,-1.76E-05
2.305,-1.62E-05
2.306,-1.42E-05
2.307,-1.22E-05
2.308,-1.46E-05
2.309,-1.48E-05
2.31,-1.42E-05
2.311,-1.37E-05
2.312,-1.25E-05
2.313,-1.24E-05
2.314,-1.06E-05
2.315,-9.71E-06
2.316,-9.63E-06
2.317,-8.51E-06
2.318,-6.13E-06
2.319,-4.15E-06
2.32,-4.23E-06
2.321,-4.02E-06
2.322,-2.14E-06
2.323,-1.87E-06
2.324,-1.87E-06
2.325,-3.07E-06
2.326,-2.88E-06
2.327,-4.18E-07
2.328,-1.30E-06
2.329,-2.39E-06
2.33,-2.45E-06
2.331,-1.10E-06
2.332,5.97E-07
2.333,1.37E-06
2.334,1.72E-06
2.335,2.56E-06
2.336,3.21E-06
2.337,2.30E-06
2.338,3.22E-06
2.339,4.18E-06
2.34,3.44E-06
2.341,3.76E-06
2.342,4.04E-06
2.343,2.25E-06
2.344,1.56E-07
2.345,1.91E-06
2.346,4.30E-06
2.347,5.62E-06
2.348,4.69E-06
2.349,3.94E-06
2.35,4.70E-06
2.351,9.84E-07
2.352,-6.50E-07
2.353,-4.14E-07
2.354,-2.19E-06
2.355,-2.70E-06
2.356,-9.79E-07
2.357,-6.09E-07
2.358,-5.29E-06
2.359,-8.63E-06
2.36,-7.48E-06
2.361,-5.61E-06
2.362,-4.55E-06
2.363,-3.06E-06
2.364,-2.54E-06
2.365,-1.27E-06
2.366,-1.81E-07
2.367,-1.47E-07
2.368,1.73E-07
2.369,-1.40E-07
2.37,-1.16E-06
2.371,-2.14E-06
2.372,-2.68E-06
2.373,-4.39E-06
2.374,-5.08E-06
2.375,-4.58E-06
2.376,-5.23E-06
2.377,-2.53E-06
2.378,-6.25E-07
2.379,-1.46E-06
2.38,-1.42E-06
2.381,-7.00E-07
2.382,6.32E-07
2.383,1.92E-06
2.384,3.03E-06
2.385,1.59E-06
2.386,9.43E-07
2.387,1.46E-06
2.388,1.44E-06
2.389,1.35E-06
2.39,7.78E-07
2.391,-6.37E-07
2.392,4.11E-07
2.393,2.99E-06
2.394,3.04E-06
2.395,5.46E-06
2.396,8.76E-06
2.397,1.08E-05
2.398,1.15E-05
2.399,1.16E-05
2.4,1.21E-05
2.401,1.41E-05
2.402,1.47E-05
2.403,9.46E-06
2.404,8.50E-06
2.405,1.04E-05
2.406,1.13E-05
2.407,1.14E-05
2.408,8.55E-06
2.409,9.31E-06
2.41,1.07E-05
2.411,9.39E-06
2.412,9.08E-06
2.413,9.91E-06
2.414,1.20E-05
2.415,1.12E-05
2.416,9.60E-06
2.417,8.28E-06
2.418,6.47E-06
2.419,6.35E-06
2.42,4.27E-06
2.421,3.40E-06
2.422,4.86E-06
2.423,4.15E-06
2.424,3.34E-06
2.425,3.78E-06
2.426,4.21E-06
2.427,5.06E-06
2.428,3.37E-06
2.429,1.82E-06
2.43,2.18E-06
2.431,9.12E-08
2.432,-1.91E-06
2.433,-3.66E-06
2.434,-6.28E-06
2.435,-5.59E-06
2.436,-5.64E-06
2.437,-7.10E-06
2.438,-6.25E-06
2.439,-7.23E-06
2.44,-6.88E-06
2.441,-5.66E-06
2.442,-5.64E-06
2.443,-6.69E-06
2.444,-6.94E-06
2.445,-5.12E-06
2.446,-7.31E-06
2.447,-8.77E-06
2.448,-1.08E-05
2.449,-1.27E-05
2.45,-1.07E-05
2.451,-1.07E-05
2.452,-1.20E-05
2.453,-1.23E-05
2.454,-1.16E-05
2.455,-8.25E-06
2.456,-7.27E-06
2.457,-8.76E-06
2.458,-8.61E-06
2.459,-7.89E-06
2.46,-6.94E-06
2.461,-6.68E-06
2.462,-6.68E-06
2.463,-6.11E-06
2.464,-4.60E-06
2.465,-5.06E-06
2.466,-5.23E-06
2.467,-6.05E-06
2.468,-6.27E-06
2.469,-4.69E-06
2.47,-4.33E-06
2.471,-2.15E-06
2.472,-1.52E-06
2.473,-1.93E-06
2.474,-9.58E-07
2.475,1.25E-07
2.476,8.70E-07
2.477,1.05E-06
2.478,1.79E-06
2.479,2.01E-06
2.48,3.06E-06
2.481,1.43E-06
2.482,-1.03E-06
2.483,-1.24E-06
2.484,-1.87E-06
2.485,-8.90E-07
2.486,-3.92E-07
2.487,-2.70E-06
2.488,-5.74E-06
2.489,-3.36E-06
2.49,-1.02E-06
2.491,-3.95E-06
2.492,-4.09E-06
2.493,-4.35E-06
2.494,-3.14E-06
2.495,-2.54E-06
2.496,-4.74E-06
2.497,-5.09E-06
2.498,-6.87E-06
2.499,-9.04E-06
2.5,-7.30E-06
2.501,-7.21E-06
2.502,-8.49E-06
2.503,-9.53E-06
2.504,-1.04E-05
2.505,-1.05E-05
2.506,-9.13E-06
2.507,-9.12E-06
2.508,-1.24E-05
2.509,-1.29E-05
2.51,-1.44E-05
2.511,-1.46E-05
2.512,-1.41E-05
2.513,-1.56E-05
2.514,-1.54E-05
2.515,-1.49E-05
2.516,-1.52E-05
2.517,-1.65E-05
2.518,-1.63E-05
2.519,-1.58E-05
2.52,-1.50E-05
2.521,-1.39E-05
2.522,-1.42E-05
2.523,-1.44E-05
2.524,-1.47E-05
2.525,-1.50E-05
2.526,-1.45E-05
2.527,-1.33E-05
2.528,-1.42E-05
2.529,-1.38E-05
2.53,-1.07E-05
2.531,-1.14E-05
2.532,-1.33E-05
2.533,-1.27E-05
2.534,-1.10E-05
2.535,-9.41E-06
2.536,-9.18E-06
2.537,-8.69E-06
2.538,-9.70E-06
2.539,-1.06E-05
2.54,-8.22E-06
2.541,-8.43E-06
2.542,-7.68E-06
2.543,-7.13E-06
2.544,-9.64E-06
2.545,-9.10E-06
2.546,-5.90E-06
2.547,-4.86E-06
2.548,-5.02E-06
2.549,-5.62E-06
2.55,-6.00E-06
2.551,-3.83E-06
2.552,-4.26E-06
2.553,-3.22E-06
2.554,-3.25E-06
2.555,-3.76E-06
2.556,-1.14E-06
2.557,-5.86E-07
2.558,-8.51E-07
2.559,-2.60E-06
2.56,-2.17E-06
2.561,-2.03E-06
2.562,-3.03E-06
2.563,-2.84E-06
2.564,-2.85E-06
2.565,-3.16E-06
2.566,-3.39E-06
2.567,-2.97E-06
2.568,-3.54E-06
2.569,-3.75E-06
2.57,-3.64E-06
2.571,-3.96E-06
2.572,-4.53E-06
2.573,-5.05E-06
2.574,-5.52E-06
2.575,-7.10E-06
2.576,-7.15E-06
2.577,-7.71E-06
2.578,-7.83E-06
2.579,-8.14E-06
2.58,-1.00E-05
2.581,-9.49E-06
2.582,-1.01E-05
2.583,-1.08E-05
2.584,-9.69E-06
2.585,-9.26E-06
2.586,-6.83E-06
2.587,-5.38E-06
2.588,-7.87E-06
2.589,-1.04E-05
2.59,-1.13E-05
2.591,-1.16E-05
2.592,-1.14E-05
2.593,-1.19E-05
2.594,-1.24E-05
2.595,-1.55E-05
2.596,-1.97E-05
2.597,-2.21E-05
2.598,-1.87E-05
2.599,-1.41E-05
2.6,-1.63E-05
2.601,-1.68E-05
2.602,-1.60E-05
2.603,-1.79E-05
2.604,-1.93E-05
2.605,-1.41E-05
2.606,-9.40E-06
2.607,-1.15E-05
2.608,-1.26E-05
2.609,-1.29E-05
2.61,-1.39E-05
2.611,-1.45E-05
2.612,-1.50E-05
2.613,-1.52E-05
2.614,-1.45E-05
2.615,-1.37E-05
2.616,-1.41E-05
2.617,-1.48E-05
2.618,-1.39E-05
2.619,-1.34E-05
2.62,-1.25E-05
2.621,-1.12E-05
2.622,-1.02E-05
2.623,-9.43E-06
2.624,-8.68E-06
2.625,-8.34E-06
2.626,-7.40E-06
2.627,-6.29E-06
2.628,-5.83E-06
2.629,-5.13E-06
2.63,-4.52E-06
2.631,-4.41E-06
2.632,-2.42E-06
2.633,-2.55E-06
2.634,-5.51E-06
2.635,-3.78E-06
2.636,-2.64E-06
2.637,-3.96E-06
2.638,-4.50E-06
2.639,-4.03E-06
2.64,-3.61E-06
2.641,-3.42E-06
2.642,-1.95E-06
2.643,-1.13E-06
2.644,-1.17E-06
2.645,-1.13E-06
2.646,-4.60E-07
2.647,-6.23E-07
2.648,3.32E-07
2.649,3.66E-07
2.65,-2.33E-06
2.651,-2.96E-06
2.652,-3.47E-06
2.653,-5.40E-06
2.654,-6.29E-06
2.655,-6.75E-06
2.656,-9.20E-06
2.657,-1.08E-05
2.658,-1.09E-05
2.659,-1.10E-05
2.66,-9.46E-06
2.661,-1.00E-05
2.662,-1.03E-05
2.663,-9.68E-06
2.664,-1.05E-05
2.665,-1.26E-05
2.666,-1.42E-05
2.667,-1.50E-05
2.668,-1.69E-05
2.669,-1.84E-05
2.67,-2.07E-05
2.671,-2.39E-05
2.672,-2.55E-05
2.673,-2.54E-05
2.674,-2.70E-05
2.675,-2.76E-05
2.676,-2.65E-05
2.677,-2.60E-05
2.678,-2.46E-05
2.679,-2.25E-05
2.68,-2.05E-05
2.681,-1.88E-05
2.682,-1.71E-05
2.683,-1.39E-05
2.684,-1.30E-05
2.685,-1.51E-05
2.686,-1.33E-05
2.687,-1.03E-05
2.688,-1.13E-05
2.689,-1.30E-05
2.69,-1.26E-05
2.691,-1.14E-05
2.692,-8.63E-06
2.693,-6.66E-06
2.694,-6.74E-06
2.695,-4.71E-06
2.696,-2.72E-06
2.697,-2.82E-06
2.698,-1.76E-06
2.699,1.12E-07
2.7,2.79E-06
2.701,4.45E-06
2.702,4.12E-06
2.703,5.32E-06
2.704,5.46E-06
2.705,5.48E-06
2.706,6.18E-06
2.707,6.28E-06
2.708,6.78E-06
2.709,7.86E-06
2.71,1.08E-05
2.711,1.03E-05
2.712,1.04E-05
2.713,1.22E-05
2.714,1.16E-05
2.715,1.33E-05
2.716,1.28E-05
2.717,1.26E-05
2.718,1.36E-05
2.719,1.40E-05
2.72,1.29E-05
2.721,1.07E-05
2.722,9.12E-06
2.723,7.18E-06
2.724,4.75E-06
2.725,1.53E-06
2.726,-1.46E-06
2.727,-4.37E-06
2.728,-7.81E-06
2.729,-1.04E-05
2.73,-1.12E-05
2.731,-1.70E-05
2.732,-2.38E-05
2.733,-2.57E-05
2.734,-2.64E-05
2.735,-2.67E-05
2.736,-2.72E-05
2.737,-2.83E-05
2.738,-2.82E-05
2.739,-2.65E-05
2.74,-2.67E-05
2.741,-2.68E-05
2.742,-2.70E-05
2.743,-2.72E-05
2.744,-2.77E-05
2.745,-2.98E-05
2.746,-3.06E-05
2.747,-3.14E-05
2.748,-3.20E-05
2.749,-3.31E-05
2.75,-3.26E-05
2.751,-3.33E-05
2.752,-3.40E-05
2.753,-3.11E-05
2.754,-3.27E-05
2.755,-3.24E-05
2.756,-2.93E-05
2.757,-2.84E-05
2.758,-2.73E-05
2.759,-2.62E-05
2.76,-2.47E-05
2.761,-2.31E-05
2.762,-2.17E-05
2.763,-2.04E-05
2.764,-1.94E-05
2.765,-1.86E-05
2.766,-1.61E-05
2.767,-1.37E-05
2.768,-1.21E-05
2.769,-9.74E-06
2.77,-6.58E-06
2.771,-3.31E-06
2.772,-6.62E-07
2.773,1.23E-06
2.774,5.22E-06
2.775,7.59E-06
2.776,7.94E-06
2.777,9.61E-06
2.778,1.10E-05
2.779,1.23E-05
2.78,1.13E-05
2.781,9.86E-06
2.782,7.78E-06
2.783,5.29E-06
2.784,4.40E-06
2.785,3.29E-06
2.786,6.49E-07
2.787,-2.35E-06
2.788,-3.95E-06
2.789,-5.51E-06
2.79,-6.60E-06
2.791,-7.81E-06
2.792,-9.43E-06
2.793,-1.15E-05
2.794,-1.26E-05
2.795,-1.38E-05
2.796,-1.57E-05
2.797,-1.54E-05
2.798,-1.59E-05
2.799,-1.78E-05
2.8,-1.91E-05
2.801,-1.99E-05
2.802,-2.29E-05
2.803,-2.89E-05
2.804,-3.26E-05
2.805,-3.48E-05
2.806,-3.52E-05
2.807,-3.65E-05
2.808,-4.26E-05
2.809,-4.79E-05
2.81,-4.97E-05
2.811,-5.12E-05
2.812,-5.36E-05
2.813,-5.60E-05
2.814,-5.64E-05
2.815,-5.49E-05
2.816,-5.68E-05
2.817,-5.52E-05
2.818,-5.30E-05
2.819,-4.98E-05
2.82,-4.39E-05
2.821,-4.26E-05
2.822,-3.97E-05
2.823,-3.44E-05
2.824,-2.96E-05
2.825,-2.51E-05
2.826,-1.69E-05
2.827,-8.25E-06
2.828,-4.56E-07
2.829,9.35E-06
2.83,1.85E-05
2.831,2.61E-05
2.832,3.35E-05
2.833,4.18E-05
2.834,4.65E-05
2.835,4.92E-05
2.836,5.13E-05
2.837,5.33E-05
2.838,5.40E-05
2.839,5.20E-05
2.84,5.18E-05
2.841,5.01E-05
2.842,4.80E-05
2.843,4.84E-05
2.844,4.29E-05
2.845,3.74E-05
2.846,3.66E-05
2.847,3.37E-05
2.848,3.15E-05
2.849,3.21E-05
2.85,3.22E-05
2.851,3.27E-05
2.852,3.43E-05
2.853,3.49E-05
2.854,3.53E-05
2.855,3.37E-05
2.856,3.16E-05
2.857,3.15E-05
2.858,3.12E-05
2.859,2.93E-05
2.86,2.61E-05
2.861,2.31E-05
2.862,1.88E-05
2.863,1.60E-05
2.864,1.14E-05
2.865,4.23E-06
2.866,-2.04E-06
2.867,-5.48E-06
2.868,-6.55E-06
2.869,-1.24E-05
2.87,-1.92E-05
2.871,-2.58E-05
2.872,-3.19E-05
2.873,-3.51E-05
2.874,-4.23E-05
2.875,-4.92E-05
2.876,-5.31E-05
2.877,-5.75E-05
2.878,-6.05E-05
2.879,-6.30E-05
2.88,-6.49E-05
2.881,-6.58E-05
2.882,-6.63E-05
2.883,-6.78E-05
2.884,-6.85E-05
2.885,-6.58E-05
2.886,-6.50E-05
2.887,-6.49E-05
2.888,-6.45E-05
2.889,-6.47E-05
2.89,-6.47E-05
2.891,-6.47E-05
2.892,-6.52E-05
2.893,-6.57E-05
2.894,-6.59E-05
2.895,-6.66E-05
2.896,-6.89E-05
2.897,-7.20E-05
2.898,-7.22E-05
2.899,-7.13E-05
2.9,-6.74E-05
2.901,-6.54E-05
2.902,-6.58E-05
2.903,-6.43E-05
2.904,-6.24E-05
2.905,-5.57E-05
2.906,-4.86E-05
2.907,-4.31E-05
2.908,-3.82E-05
2.909,-3.54E-05
2.91,-2.87E-05
2.911,-2.39E-05
2.912,-2.08E-05
2.913,-1.70E-05
2.914,-1.38E-05
2.915,-1.06E-05
2.916,-1.03E-05
2.917,-8.12E-06
2.918,-5.78E-06
2.919,-6.69E-06
2.92,-6.40E-06
2.921,-4.36E-06
2.922,-4.12E-06
2.923,-3.54E-06
2.924,-4.99E-06
2.925,-6.96E-06
2.926,-7.73E-06
2.927,-1.11E-05
2.928,-1.27E-05
2.929,-1.39E-05
2.93,-1.55E-05
2.931,-1.72E-05
2.932,-2.01E-05
2.933,-2.17E-05
2.934,-2.42E-05
2.935,-2.54E-05
2.936,-2.64E-05
2.937,-2.59E-05
2.938,-2.50E-05
2.939,-2.70E-05
2.94,-2.74E-05
2.941,-2.69E-05
2.942,-2.64E-05
2.943,-2.69E-05
2.944,-2.76E-05
2.945,-2.93E-05
2.946,-2.95E-05
2.947,-2.92E-05
2.948,-3.31E-05
2.949,-3.45E-05
2.95,-3.49E-05
2.951,-3.67E-05
2.952,-3.90E-05
2.953,-4.17E-05
2.954,-4.20E-05
2.955,-4.20E-05
2.956,-4.36E-05
2.957,-4.29E-05
2.958,-4.27E-05
2.959,-4.22E-05
2.96,-3.79E-05
2.961,-3.48E-05
2.962,-3.14E-05
2.963,-2.99E-05
2.964,-2.90E-05
2.965,-2.64E-05
2.966,-2.43E-05
2.967,-2.24E-05
2.968,-2.05E-05
2.969,-1.91E-05
2.97,-1.81E-05
2.971,-1.70E-05
2.972,-1.56E-05
2.973,-1.47E-05
2.974,-1.42E-05
2.975,-1.19E-05
2.976,-1.13E-05
2.977,-1.08E-05
2.978,-8.80E-06
2.979,-7.75E-06
2.98,-6.06E-06
2.981,-4.15E-06
2.982,-5.24E-06
2.983,-5.35E-06
2.984,-2.98E-06
2.985,-4.56E-06
2.986,-5.69E-06
2.987,-5.46E-06
2.988,-5.18E-06
2.989,-5.54E-06
2.99,-6.22E-06
2.991,-6.60E-06
2.992,-7.56E-06
2.993,-8.08E-06
2.994,-8.13E-06
2.995,-9.39E-06
2.996,-1.14E-05
2.997,-1.07E-05
2.998,-9.99E-06
2.999,-1.01E-05
3,-1.06E-05
3.001,-1.14E-05
3.002,-1.17E-05
3.003,-1.28E-05
3.004,-1.54E-05
3.005,-1.70E-05
3.006,-1.35E-05
3.007,-1.61E-05
3.008,-2.18E-05
3.009,-2.23E-05
3.01,-2.44E-05
3.011,-2.62E-05
3.012,-2.81E-05
3.013,-3.10E-05
3.014,-2.84E-05
3.015,-2.65E-05
3.016,-3.03E-05
3.017,-3.08E-05
3.018,-2.87E-05
3.019,-2.74E-05
3.02,-2.58E-05
3.021,-2.59E-05
3.022,-2.60E-05
3.023,-2.58E-05
3.024,-2.59E-05
3.025,-2.42E-05
3.026,-2.64E-05
3.027,-3.00E-05
3.028,-2.82E-05
3.029,-2.75E-05
3.03,-2.86E-05
3.031,-2.83E-05
3.032,-2.71E-05
3.033,-2.59E-05
3.034,-2.49E-05
3.035,-2.32E-05
3.036,-2.26E-05
3.037,-2.05E-05
3.038,-1.82E-05
3.039,-1.68E-05
3.04,-1.53E-05
3.041,-1.37E-05
3.042,-1.20E-05
3.043,-1.22E-05
3.044,-1.24E-05
3.045,-1.20E-05
3.046,-1.15E-05
3.047,-1.18E-05
3.048,-1.20E-05
3.049,-1.09E-05
3.05,-1.05E-05
3.051,-9.66E-06
3.052,-9.60E-06
3.053,-1.01E-05
3.054,-9.12E-06
3.055,-7.37E-06
3.056,-5.86E-06
3.057,-3.90E-06
3.058,-4.11E-06
3.059,-4.81E-06
3.06,-2.97E-06
3.061,-1.51E-06
3.062,-1.01E-06
3.063,-5.53E-07
3.064,-3.47E-07
3.065,-1.09E-06
3.066,-6.78E-07
3.067,-6.24E-07
3.068,-1.53E-06
3.069,-1.06E-07
3.07,-9.45E-07
3.071,-9.45E-07
3.072,-5.97E-07
3.073,-3.39E-06
3.074,-3.70E-06
3.075,-3.82E-06
3.076,-6.74E-06
3.077,-4.55E-06
3.078,-1.16E-06
3.079,-3.88E-06
3.08,-2.21E-06
3.081,-3.96E-06
3.082,-6.55E-06
3.083,-2.38E-06
3.084,-2.24E-06
3.085,-5.30E-06
3.086,-6.95E-06
3.087,-6.35E-06
3.088,-5.06E-06
3.089,-5.04E-06
3.09,-5.66E-06
3.091,-6.52E-06
3.092,-6.53E-06
3.093,-7.00E-06
3.094,-7.09E-06
3.095,-4.86E-06
3.096,-3.65E-06
3.097,-2.45E-06
3.098,-1.01E-06
3.099,-4.44E-07
3.1,-3.79E-07
3.101,-1.29E-06
3.102,-2.45E-06
3.103,-4.57E-06
3.104,-5.19E-06
3.105,-3.93E-06
3.106,-4.31E-06
3.107,-5.58E-06
3.108,-8.11E-06
3.109,-8.19E-06
3.11,-3.95E-06
3.111,-3.95E-06
3.112,-4.54E-06
3.113,-2.42E-06
3.114,-7.55E-07
3.115,-1.01E-06
3.116,-1.62E-06
3.117,2.84E-07
3.118,4.30E-07
3.119,-8.49E-07
3.12,-1.39E-06
3.121,-4.39E-07
3.122,1.89E-06
3.123,1.24E-06
3.124,9.73E-07
3.125,6.93E-07
3.126,9.80E-08
3.127,6.58E-07
3.128,1.13E-06
3.129,2.84E-06
3.13,4.45E-06
3.131,5.08E-06
3.132,5.60E-06
3.133,5.28E-06
3.134,5.41E-06
3.135,5.81E-06
3.136,5.90E-06
3.137,6.82E-06
3.138,6.60E-06
3.139,6.27E-06
3.14,6.56E-06
3.141,6.68E-06
3.142,6.83E-06
3.143,7.40E-06
3.144,7.66E-06
3.145,7.00E-06
3.146,7.99E-06
3.147,6.51E-06
3.148,4.75E-06
3.149,5.23E-06
3.15,4.84E-06
3.151,3.42E-06
3.152,1.27E-06
3.153,2.30E-07
3.154,1.40E-06
3.155,-9.77E-08
3.156,-3.67E-06
3.157,-2.35E-07
3.158,2.40E-06
3.159,4.24E-07
3.16,2.20E-06
3.161,2.43E-06
3.162,-1.81E-06
3.163,-1.43E-06
3.164,-1.00E-06
3.165,-2.93E-06
3.166,-1.90E-06
3.167,-1.39E-06
3.168,-3.00E-06
3.169,-5.82E-06
3.17,-8.05E-06
3.171,-7.80E-06
3.172,-7.78E-06
3.173,-1.11E-05
3.174,-1.17E-05
3.175,-1.20E-05
3.176,-1.62E-05
3.177,-1.67E-05
3.178,-1.57E-05
3.179,-1.66E-05
3.18,-1.65E-05
3.181,-1.72E-05
3.182,-1.68E-05
3.183,-1.72E-05
3.184,-1.75E-05
3.185,-1.64E-05
3.186,-1.75E-05
3.187,-1.70E-05
3.188,-1.49E-05
3.189,-1.41E-05
3.19,-1.51E-05
3.191,-1.47E-05
3.192,-1.38E-05
3.193,-1.35E-05
3.194,-1.29E-05
3.195,-1.40E-05
3.196,-1.47E-05
3.197,-1.38E-05
3.198,-1.47E-05
3.199,-1.49E-05
3.2,-1.30E-05
3.201,-1.27E-05
3.202,-1.27E-05
3.203,-1.24E-05
3.204,-1.20E-05
3.205,-1.09E-05
3.206,-9.82E-06
3.207,-1.03E-05
3.208,-9.69E-06
3.209,-9.00E-06
3.21,-9.18E-06
3.211,-8.81E-06
3.212,-8.59E-06
3.213,-8.28E-06
3.214,-7.67E-06
3.215,-7.32E-06
3.216,-7.84E-06
3.217,-6.61E-06
3.218,-6.27E-06
3.219,-5.94E-06
3.22,-3.67E-06
3.221,-2.29E-06
3.222,-1.86E-06
3.223,-1.92E-06
3.224,-2.70E-06
3.225,-3.21E-06
3.226,-3.05E-06
3.227,-4.59E-06
3.228,-5.61E-06
3.229,-7.54E-06
3.23,-9.14E-06
3.231,-8.95E-06
3.232,-1.02E-05
3.233,-1.18E-05
3.234,-1.36E-05
3.235,-1.42E-05
3.236,-1.52E-05
3.237,-1.49E-05
3.238,-1.34E-05
3.239,-1.46E-05
3.24,-1.50E-05
3.241,-1.52E-05
3.242,-1.65E-05
3.243,-1.64E-05
3.244,-1.61E-05
3.245,-1.52E-05
3.246,-1.57E-05
3.247,-1.72E-05
3.248,-1.64E-05
3.249,-1.73E-05
3.25,-1.70E-05
3.251,-1.63E-05
3.252,-2.11E-05
3.253,-2.23E-05
3.254,-2.12E-05
3.255,-2.16E-05
3.256,-2.31E-05
3.257,-2.45E-05
3.258,-2.14E-05
3.259,-1.88E-05
3.26,-2.03E-05
3.261,-2.10E-05
3.262,-1.95E-05
3.263,-1.95E-05
3.264,-2.02E-05
3.265,-2.03E-05
3.266,-1.89E-05
3.267,-1.91E-05
3.268,-1.95E-05
3.269,-1.63E-05
3.27,-1.54E-05
3.271,-1.69E-05
3.272,-1.79E-05
3.273,-1.84E-05
3.274,-1.69E-05
3.275,-1.53E-05
3.276,-1.47E-05
3.277,-1.35E-05
3.278,-1.36E-05
3.279,-1.40E-05
3.28,-1.22E-05
3.281,-1.06E-05
3.282,-1.03E-05
3.283,-9.61E-06
3.284,-9.98E-06
3.285,-9.73E-06
3.286,-7.27E-06
3.287,-6.68E-06
3.288,-7.66E-06
3.289,-8.09E-06
3.29,-8.16E-06
3.291,-8.15E-06
3.292,-8.44E-06
3.293,-7.81E-06
3.294,-7.57E-06
3.295,-8.60E-06
3.296,-7.52E-06
3.297,-6.33E-06
3.298,-6.66E-06
3.299,-7.73E-06
3.3,-8.06E-06
3.301,-7.26E-06
3.302,-6.65E-06
3.303,-5.22E-06
3.304,-5.97E-06
3.305,-6.49E-06
3.306,-7.04E-06
3.307,-1.02E-05
3.308,-1.07E-05
3.309,-9.41E-06
3.31,-8.90E-06
3.311,-1.13E-05
3.312,-1.33E-05
3.313,-1.25E-05
3.314,-1.07E-05
3.315,-1.08E-05
3.316,-1.26E-05
3.317,-1.14E-05
3.318,-1.01E-05
3.319,-8.45E-06
3.32,-9.69E-06
3.321,-1.21E-05
3.322,-1.23E-05
3.323,-1.49E-05
3.324,-1.27E-05
3.325,-1.10E-05
3.326,-1.42E-05
3.327,-1.61E-05
3.328,-1.80E-05
3.329,-1.60E-05
3.33,-1.54E-05
3.331,-1.77E-05
3.332,-1.67E-05
3.333,-1.88E-05
3.334,-1.90E-05
3.335,-1.61E-05
3.336,-1.73E-05
3.337,-1.66E-05
3.338,-1.59E-05
3.339,-1.62E-05
3.34,-1.66E-05
3.341,-1.92E-05
3.342,-1.79E-05
3.343,-1.42E-05
3.344,-1.33E-05
3.345,-1.24E-05
3.346,-1.31E-05
3.347,-1.44E-05
3.348,-1.43E-05
3.349,-1.39E-05
3.35,-1.34E-05
3.351,-1.38E-05
3.352,-1.54E-05
3.353,-1.50E-05
3.354,-1.46E-05
3.355,-1.49E-05
3.356,-1.43E-05
3.357,-1.47E-05
3.358,-1.62E-05
3.359,-1.60E-05
3.36,-1.40E-05
3.361,-1.39E-05
3.362,-1.50E-05
3.363,-1.16E-05
3.364,-8.50E-06
3.365,-9.44E-06
3.366,-8.56E-06
3.367,-4.91E-06
3.368,-5.73E-06
3.369,-6.38E-06
3.37,-3.50E-06
3.371,-4.41E-06
3.372,-3.24E-06
3.373,-6.05E-07
3.374,-1.05E-07
3.375,-1.45E-07
3.376,1.75E-07
3.377,-3.45E-07
3.378,-4.06E-07
3.379,1.69E-06
3.38,5.53E-07
3.381,6.79E-07
3.382,2.38E-06
3.383,1.68E-06
3.384,-3.04E-07
3.385,-2.23E-06
3.386,-2.27E-06
3.387,-1.97E-06
3.388,-2.00E-06
3.389,-3.23E-06
3.39,-4.94E-06
3.391,-5.13E-06
3.392,-4.81E-06
3.393,-4.92E-06
3.394,-4.59E-06
3.395,-5.08E-06
3.396,-5.15E-06
3.397,-3.63E-06
3.398,-3.46E-06
3.399,-5.28E-06
3.4,-5.27E-06
3.401,-4.83E-06
3.402,-7.22E-06
3.403,-7.82E-06
3.404,-7.96E-06
3.405,-9.42E-06
3.406,-1.05E-05
3.407,-1.29E-05
3.408,-1.49E-05
3.409,-1.63E-05
3.41,-1.79E-05
3.411,-1.76E-05
3.412,-1.82E-05
3.413,-2.03E-05
3.414,-1.99E-05
3.415,-1.99E-05
3.416,-2.21E-05
3.417,-2.44E-05
3.418,-2.61E-05
3.419,-2.53E-05
3.42,-2.52E-05
3.421,-2.62E-05
3.422,-2.74E-05
3.423,-2.73E-05
3.424,-2.60E-05
3.425,-2.37E-05
3.426,-1.83E-05
3.427,-1.58E-05
3.428,-1.48E-05
3.429,-1.37E-05
3.43,-1.22E-05
3.431,-8.46E-06
3.432,-8.50E-06
3.433,-9.84E-06
3.434,-7.32E-06
3.435,-6.28E-06
3.436,-6.05E-06
3.437,-4.25E-06
3.438,-4.05E-06
3.439,-3.69E-06
3.44,-2.18E-06
3.441,-9.34E-07
3.442,-3.86E-07
3.443,1.71E-06
3.444,3.29E-06
3.445,5.10E-06
3.446,5.79E-06
3.447,3.85E-06
3.448,5.35E-06
3.449,6.52E-06
3.45,6.99E-06
3.451,8.39E-06
3.452,8.36E-06
3.453,8.24E-06
3.454,8.24E-06
3.455,1.02E-05
3.456,1.14E-05
3.457,1.22E-05
3.458,1.56E-05
3.459,1.70E-05
3.46,1.58E-05
3.461,1.49E-05
3.462,1.39E-05
3.463,1.22E-05
3.464,1.00E-05
3.465,6.78E-06
3.466,6.89E-06
3.467,6.47E-06
3.468,2.29E-06
3.469,-1.30E-06
3.47,-4.57E-06
3.471,-6.77E-06
3.472,-9.87E-06
3.473,-1.39E-05
3.474,-1.67E-05
3.475,-1.62E-05
3.476,-1.76E-05
3.477,-2.10E-05
3.478,-2.34E-05
3.479,-2.58E-05
3.48,-2.68E-05
3.481,-2.83E-05
3.482,-2.97E-05
3.483,-3.07E-05
3.484,-3.21E-05
3.485,-3.18E-05
3.486,-3.22E-05
3.487,-3.37E-05
3.488,-3.33E-05
3.489,-3.36E-05
3.49,-3.41E-05
3.491,-3.41E-05
3.492,-3.49E-05
3.493,-3.57E-05
3.494,-3.56E-05
3.495,-3.48E-05
3.496,-3.42E-05
3.497,-3.39E-05
3.498,-3.32E-05
3.499,-3.23E-05
3.5,-3.12E-05
3.501,-2.97E-05
3.502,-2.79E-05
3.503,-2.66E-05
3.504,-2.57E-05
3.505,-2.29E-05
3.506,-2.14E-05
3.507,-2.00E-05
3.508,-1.72E-05
3.509,-1.60E-05
3.51,-1.46E-05
3.511,-1.29E-05
3.512,-1.12E-05
3.513,-9.19E-06
3.514,-6.91E-06
3.515,-4.25E-06
3.516,-1.73E-06
3.517,1.27E-06
3.518,3.86E-06
3.519,6.62E-06
3.52,1.08E-05
3.521,1.36E-05
3.522,1.43E-05
3.523,1.48E-05
3.524,1.45E-05
3.525,1.49E-05
3.526,1.41E-05
3.527,1.21E-05
3.528,9.95E-06
3.529,7.75E-06
3.53,5.31E-06
3.531,3.05E-06
3.532,1.36E-06
3.533,-7.91E-08
3.534,-3.55E-06
3.535,-7.24E-06
3.536,-7.28E-06
3.537,-8.91E-06
3.538,-9.78E-06
3.539,-1.06E-05
3.54,-1.41E-05
3.541,-1.70E-05
3.542,-1.76E-05
3.543,-1.70E-05
3.544,-2.09E-05
3.545,-2.49E-05
3.546,-2.70E-05
3.547,-3.11E-05
3.548,-3.36E-05
3.549,-3.62E-05
3.55,-4.04E-05
3.551,-4.32E-05
3.552,-4.70E-05
3.553,-4.97E-05
3.554,-4.96E-05
3.555,-5.32E-05
3.556,-5.74E-05
3.557,-5.86E-05
3.558,-5.93E-05
3.559,-6.12E-05
3.56,-6.34E-05
3.561,-6.19E-05
3.562,-5.86E-05
3.563,-5.67E-05
3.564,-5.52E-05
3.565,-5.12E-05
3.566,-4.67E-05
3.567,-4.26E-05
3.568,-3.65E-05
3.569,-3.07E-05
3.57,-2.47E-05
3.571,-1.93E-05
3.572,-1.26E-05
3.573,-2.53E-06
3.574,7.90E-06
3.575,1.58E-05
3.576,2.32E-05
3.577,3.07E-05
3.578,3.74E-05
3.579,4.35E-05
3.58,4.77E-05
3.581,5.10E-05
3.582,5.30E-05
3.583,5.52E-05
3.584,5.55E-05
3.585,5.50E-05
3.586,5.43E-05
3.587,5.46E-05
3.588,5.26E-05
3.589,4.78E-05
3.59,4.40E-05
3.591,3.94E-05
3.592,3.64E-05
3.593,3.39E-05
3.594,3.25E-05
3.595,3.21E-05
3.596,3.48E-05
3.597,3.79E-05
3.598,4.01E-05
3.599,4.04E-05
3.6,3.72E-05
3.601,3.56E-05
3.602,3.69E-05
3.603,3.56E-05
3.604,3.16E-05
3.605,2.86E-05
3.606,2.34E-05
3.607,1.83E-05
3.608,1.65E-05
3.609,1.04E-05
3.61,2.00E-06
3.611,-2.75E-06
3.612,-7.96E-06
3.613,-1.30E-05
3.614,-1.75E-05
3.615,-2.27E-05
3.616,-2.69E-05
3.617,-3.14E-05
3.618,-3.68E-05
3.619,-4.17E-05
3.62,-4.66E-05
3.621,-5.30E-05
3.622,-6.03E-05
3.623,-5.99E-05
3.624,-6.18E-05
3.625,-6.95E-05
3.626,-7.18E-05
3.627,-7.22E-05
3.628,-7.18E-05
3.629,-7.16E-05
3.63,-7.15E-05
3.631,-7.02E-05
3.632,-7.02E-05
3.633,-7.37E-05
3.634,-7.51E-05
3.635,-7.20E-05
3.636,-7.03E-05
3.637,-6.99E-05
3.638,-7.10E-05
3.639,-7.20E-05
3.64,-7.31E-05
3.641,-7.53E-05
3.642,-7.48E-05
3.643,-7.36E-05
3.644,-7.26E-05
3.645,-7.24E-05
3.646,-6.99E-05
3.647,-6.41E-05
3.648,-6.28E-05
3.649,-6.13E-05
3.65,-5.72E-05
3.651,-5.19E-05
3.652,-4.62E-05
3.653,-4.14E-05
3.654,-3.61E-05
3.655,-3.15E-05
3.656,-2.64E-05
3.657,-2.08E-05
3.658,-1.95E-05
3.659,-1.51E-05
3.66,-7.59E-06
3.661,-5.57E-06
3.662,-3.88E-06
3.663,-1.82E-06
3.664,-2.77E-06
3.665,-3.88E-06
3.666,-4.08E-06
3.667,-4.29E-06
3.668,-5.42E-06
3.669,-7.09E-06
3.67,-8.22E-06
3.671,-1.01E-05
3.672,-1.12E-05
3.673,-1.31E-05
3.674,-1.52E-05
3.675,-1.69E-05
3.676,-1.79E-05
3.677,-1.84E-05
3.678,-2.11E-05
3.679,-2.27E-05
3.68,-2.34E-05
3.681,-2.24E-05
3.682,-2.23E-05
3.683,-2.48E-05
3.684,-2.73E-05
3.685,-2.88E-05
3.686,-2.84E-05
3.687,-2.97E-05
3.688,-3.00E-05
3.689,-2.98E-05
3.69,-3.07E-05
3.691,-3.00E-05
3.692,-3.31E-05
3.693,-3.72E-05
3.694,-3.86E-05
3.695,-4.01E-05
3.696,-4.08E-05
3.697,-4.29E-05
3.698,-4.53E-05
3.699,-4.51E-05
3.7,-4.67E-05
3.701,-4.75E-05
3.702,-4.67E-05
3.703,-4.50E-05
3.704,-4.31E-05
3.705,-4.42E-05
3.706,-4.38E-05
3.707,-3.94E-05
3.708,-3.65E-05
3.709,-3.75E-05
3.71,-3.57E-05
3.711,-3.18E-05
3.712,-2.94E-05
3.713,-2.87E-05
3.714,-2.81E-05
3.715,-2.70E-05
3.716,-2.54E-05
3.717,-2.06E-05
3.718,-1.96E-05
3.719,-2.01E-05
3.72,-1.76E-05
3.721,-1.77E-05
3.722,-1.81E-05
3.723,-1.51E-05
3.724,-1.20E-05
3.725,-1.09E-05
3.726,-1.17E-05
3.727,-1.14E-05
3.728,-1.08E-05
3.729,-1.18E-05
3.73,-9.96E-06
3.731,-7.41E-06
3.732,-8.16E-06
3.733,-9.20E-06
3.734,-9.43E-06
3.735,-8.75E-06
3.736,-7.95E-06
3.737,-8.84E-06
3.738,-8.51E-06
3.739,-5.98E-06
3.74,-7.04E-06
3.741,-8.90E-06
3.742,-9.26E-06
3.743,-1.00E-05
3.744,-1.13E-05
3.745,-1.13E-05
3.746,-1.21E-05
3.747,-1.41E-05
3.748,-1.47E-05
3.749,-1.70E-05
3.75,-1.77E-05
3.751,-1.79E-05
3.752,-2.03E-05
3.753,-2.14E-05
3.754,-2.26E-05
3.755,-2.35E-05
3.756,-2.46E-05
3.757,-2.65E-05
3.758,-2.84E-05
3.759,-2.92E-05
3.76,-2.95E-05
3.761,-2.97E-05
3.762,-2.71E-05
3.763,-2.74E-05
3.764,-3.11E-05
3.765,-3.12E-05
3.766,-3.19E-05
3.767,-3.24E-05
3.768,-3.20E-05
3.769,-3.33E-05
3.77,-3.37E-05
3.771,-3.51E-05
3.772,-3.61E-05
3.773,-3.56E-05
3.774,-3.53E-05
3.775,-3.49E-05
3.776,-3.41E-05
3.777,-3.29E-05
3.778,-3.16E-05
3.779,-3.17E-05
3.78,-3.02E-05
3.781,-2.88E-05
3.782,-2.70E-05
3.783,-2.32E-05
3.784,-2.19E-05
3.785,-1.95E-05
3.786,-2.10E-05
3.787,-2.30E-05
3.788,-2.04E-05
3.789,-1.76E-05
3.79,-1.65E-05
3.791,-1.62E-05
3.792,-1.64E-05
3.793,-1.57E-05
3.794,-1.58E-05
3.795,-1.59E-05
3.796,-1.13E-05
3.797,-1.22E-05
3.798,-1.33E-05
3.799,-1.13E-05
3.8,-1.06E-05
3.801,-8.15E-06
3.802,-6.36E-06
3.803,-4.78E-06
3.804,-3.25E-06
3.805,-2.51E-06
3.806,-3.03E-06
3.807,-3.03E-06
3.808,-1.17E-06
3.809,-1.67E-07
3.81,-5.00E-08
3.811,1.88E-06
3.812,1.52E-06
3.813,5.98E-07
3.814,9.26E-07
3.815,8.32E-07
3.816,1.64E-06
3.817,2.38E-06
3.818,3.46E-06
3.819,2.30E-06
3.82,3.97E-07
3.821,7.55E-07
3.822,-9.28E-07
3.823,-3.25E-06
3.824,-2.92E-06
3.825,-2.42E-06
3.826,-2.13E-06
3.827,-3.73E-06
3.828,-5.90E-06
3.829,-5.48E-06
3.83,-4.85E-06
3.831,-6.77E-06
3.832,-8.33E-06
3.833,-4.41E-06
3.834,-3.83E-06
3.835,-6.50E-06
3.836,-5.98E-06
3.837,-5.50E-06
3.838,-4.44E-06
3.839,-2.16E-06
3.84,-1.01E-06
3.841,-1.64E-06
3.842,-1.89E-06
3.843,-2.05E-06
3.844,-3.12E-06
3.845,-4.07E-06
3.846,-6.66E-06
3.847,-7.33E-06
3.848,-8.51E-06
3.849,-1.24E-05
3.85,-1.04E-05
3.851,-7.94E-06
3.852,-1.20E-05
3.853,-1.44E-05
3.854,-1.33E-05
3.855,-1.36E-05
3.856,-1.27E-05
3.857,-1.05E-05
3.858,-1.29E-05
3.859,-1.31E-05
3.86,-1.01E-05
3.861,-9.08E-06
3.862,-5.38E-06
3.863,-3.91E-06
3.864,-4.02E-06
3.865,-2.64E-06
3.866,-2.40E-06
3.867,-1.63E-06
3.868,-1.57E-06
3.869,-1.14E-06
3.87,-4.63E-07
3.871,-9.39E-07
3.872,-7.59E-07
3.873,-9.96E-07
3.874,-2.15E-07
3.875,2.99E-08
3.876,-3.12E-07
3.877,2.04E-07
3.878,1.77E-08
3.879,-4.46E-07
3.88,6.23E-07
3.881,2.72E-06
3.882,5.14E-07
3.883,1.18E-06
3.884,7.07E-06
3.885,8.25E-06
3.886,5.07E-06
3.887,3.21E-06
3.888,4.26E-06
3.889,1.81E-06
3.89,3.07E-06
3.891,8.07E-06
3.892,6.03E-06
3.893,3.77E-06
3.894,5.80E-06
3.895,7.23E-06
3.896,7.44E-06
3.897,7.00E-06
3.898,6.97E-06
3.899,7.01E-06
3.9,6.58E-06
3.901,6.13E-06
3.902,7.15E-06
3.903,6.04E-06
3.904,9.21E-07
3.905,-2.67E-07
3.906,-1.46E-06
3.907,-3.39E-06
3.908,-4.09E-06
3.909,-8.08E-06
3.91,-1.21E-05
3.911,-1.05E-05
3.912,-8.70E-06
3.913,-1.09E-05
3.914,-1.17E-05
3.915,-1.27E-05
3.916,-1.32E-05
3.917,-1.30E-05
3.918,-1.21E-05
3.919,-1.19E-05
3.92,-1.29E-05
3.921,-1.37E-05
3.922,-1.55E-05
3.923,-1.60E-05
3.924,-1.67E-05
3.925,-1.81E-05
3.926,-2.09E-05
3.927,-1.99E-05
3.928,-2.01E-05
3.929,-2.23E-05
3.93,-2.05E-05
3.931,-2.03E-05
3.932,-2.05E-05
3.933,-1.89E-05
3.934,-1.85E-05
3.935,-1.70E-05
3.936,-1.89E-05
3.937,-2.20E-05
3.938,-1.95E-05
3.939,-1.95E-05
3.94,-1.88E-05
3.941,-1.83E-05
3.942,-1.78E-05
3.943,-1.66E-05
3.944,-1.56E-05
3.945,-1.33E-05
3.946,-1.38E-05
3.947,-1.24E-05
3.948,-9.41E-06
3.949,-1.13E-05
3.95,-1.16E-05
3.951,-9.85E-06
3.952,-1.13E-05
3.953,-9.39E-06
3.954,-7.16E-06
3.955,-7.37E-06
3.956,-6.29E-06
3.957,-5.32E-06
3.958,-4.50E-06
3.959,-2.86E-06
3.96,-1.85E-06
3.961,-7.37E-07
3.962,-3.79E-07
3.963,-3.31E-07
3.964,1.07E-06
3.965,1.91E-06
3.966,1.40E-06
3.967,1.26E-06
3.968,3.56E-07
3.969,-4.06E-06
3.97,-5.23E-06
3.971,-4.59E-06
3.972,-5.69E-06
3.973,-6.11E-06
3.974,-7.43E-06
3.975,-8.09E-06
3.976,-8.71E-06
3.977,-8.54E-06
3.978,-8.01E-06
3.979,-8.08E-06
3.98,-8.46E-06
3.981,-1.03E-05
3.982,-1.12E-05
3.983,-1.30E-05
3.984,-1.34E-05
3.985,-1.44E-05
3.986,-1.85E-05
3.987,-2.04E-05
3.988,-1.84E-05
3.989,-1.78E-05
3.99,-2.17E-05
3.991,-2.23E-05
3.992,-2.01E-05
3.993,-2.15E-05
3.994,-2.11E-05
3.995,-1.99E-05
3.996,-2.06E-05
3.997,-2.04E-05
3.998,-2.18E-05
3.999,-2.29E-05
4,-2.25E-05
4.001,-2.13E-05
4.002,-2.28E-05
4.003,-2.61E-05
4.004,-2.75E-05
4.005,-2.64E-05
4.006,-2.43E-05
4.007,-2.49E-05
4.008,-2.54E-05
4.009,-2.63E-05
4.01,-2.74E-05
4.011,-2.60E-05
4.012,-2.44E-05
4.013,-2.29E-05
4.014,-2.19E-05
4.015,-2.11E-05
4.016,-2.00E-05
4.017,-1.95E-05
4.018,-1.81E-05
4.019,-1.67E-05
4.02,-1.55E-05
4.021,-1.44E-05
4.022,-1.36E-05
4.023,-1.24E-05
4.024,-1.11E-05
4.025,-1.00E-05
4.026,-1.11E-05
4.027,-1.14E-05
4.028,-1.09E-05
4.029,-1.10E-05
4.03,-1.16E-05
4.031,-1.17E-05
4.032,-1.19E-05
4.033,-1.15E-05
4.034,-1.02E-05
4.035,-9.51E-06
4.036,-8.93E-06
4.037,-9.11E-06
4.038,-9.87E-06
4.039,-8.77E-06
4.04,-7.35E-06
4.041,-7.04E-06
4.042,-7.36E-06
4.043,-8.00E-06
4.044,-7.96E-06
4.045,-8.30E-06
4.046,-9.67E-06
4.047,-9.23E-06
4.048,-6.64E-06
4.049,-7.65E-06
4.05,-1.08E-05
4.051,-1.12E-05
4.052,-1.01E-05
4.053,-8.07E-06
4.054,-8.44E-06
4.055,-9.70E-06
4.056,-8.93E-06
4.057,-8.45E-06
4.058,-9.90E-06
4.059,-9.29E-06
4.06,-7.07E-06
4.061,-1.17E-05
4.062,-1.40E-05
4.063,-1.48E-05
4.064,-1.82E-05
4.065,-1.85E-05
4.066,-1.75E-05
4.067,-1.67E-05
4.068,-1.88E-05
4.069,-1.95E-05
4.07,-1.97E-05
4.071,-2.01E-05
4.072,-1.91E-05
4.073,-2.03E-05
4.074,-2.04E-05
4.075,-1.94E-05
4.076,-1.90E-05
4.077,-2.18E-05
4.078,-2.21E-05
4.079,-1.96E-05
4.08,-1.92E-05
4.081,-1.95E-05
4.082,-2.02E-05
4.083,-2.11E-05
4.084,-2.09E-05
4.085,-2.02E-05
4.086,-2.13E-05
4.087,-2.17E-05
4.088,-2.39E-05
4.089,-2.05E-05
4.09,-1.71E-05
4.091,-2.09E-05
4.092,-2.24E-05
4.093,-2.18E-05
4.094,-2.15E-05
4.095,-2.28E-05
4.096,-2.31E-05
4.097,-2.15E-05
4.098,-1.93E-05
4.099,-2.08E-05
4.1,-2.41E-05
4.101,-2.27E-05
4.102,-1.88E-05
4.103,-1.53E-05
4.104,-1.48E-05
4.105,-1.80E-05
4.106,-1.88E-05
4.107,-1.64E-05
4.108,-1.18E-05
4.109,-9.30E-06
4.11,-1.03E-05
4.111,-9.88E-06
4.112,-8.96E-06
4.113,-6.35E-06
4.114,-5.48E-06
4.115,-5.09E-06
4.116,-4.22E-06
4.117,-3.37E-06
4.118,-1.67E-06
4.119,-2.61E-06
4.12,-2.47E-06
4.121,-1.41E-06
4.122,-1.28E-06
4.123,-2.02E-06
4.124,-2.37E-06
4.125,-2.55E-06
4.126,-4.01E-06
4.127,-5.32E-06
4.128,-7.84E-06
4.129,-8.00E-06
4.13,-5.79E-06
4.131,-5.09E-06
4.132,-6.13E-06
4.133,-5.19E-06
4.134,-2.93E-06
4.135,-2.81E-06
4.136,-3.08E-06
4.137,-3.35E-06
4.138,-3.13E-06
4.139,-3.10E-06
4.14,-3.54E-06
4.141,-3.70E-06
4.142,-5.74E-06
4.143,-7.53E-06
4.144,-7.54E-06
4.145,-7.85E-06
4.146,-8.99E-06
4.147,-1.28E-05
4.148,-1.54E-05
4.149,-1.71E-05
4.15,-1.77E-05
4.151,-1.86E-05
4.152,-2.32E-05
4.153,-2.53E-05
4.154,-2.68E-05
4.155,-2.64E-05
4.156,-2.65E-05
4.157,-2.87E-05
4.158,-2.86E-05
4.159,-2.88E-05
4.16,-3.05E-05
4.161,-3.27E-05
4.162,-2.87E-05
4.163,-2.45E-05
4.164,-2.59E-05
4.165,-2.49E-05
4.166,-2.37E-05
4.167,-1.83E-05
4.168,-1.75E-05
4.169,-1.84E-05
4.17,-1.35E-05
4.171,-1.37E-05
4.172,-1.31E-05
4.173,-1.26E-05
4.174,-1.11E-05
4.175,-9.04E-06
4.176,-8.93E-06
4.177,-7.59E-06
4.178,-6.77E-06
4.179,-5.64E-06
4.18,-4.47E-06
4.181,-5.06E-06
4.182,-3.41E-06
4.183,-4.41E-07
4.184,2.17E-08
4.185,8.54E-07
4.186,5.31E-07
4.187,7.32E-07
4.188,1.24E-06
4.189,5.23E-06
4.19,7.20E-06
4.191,6.64E-06
4.192,7.52E-06
4.193,7.24E-06
4.194,1.04E-05
4.195,1.18E-05
4.196,1.29E-05
4.197,1.46E-05
4.198,1.58E-05
4.199,1.73E-05
4.2,1.62E-05
4.201,1.64E-05
4.202,1.82E-05
4.203,1.67E-05
4.204,1.51E-05
4.205,1.51E-05
4.206,1.29E-05
4.207,1.04E-05
4.208,7.60E-06
4.209,4.05E-06
4.21,1.18E-06
4.211,-2.30E-06
4.212,-6.44E-06
4.213,-9.09E-06
4.214,-1.05E-05
4.215,-1.36E-05
4.216,-1.70E-05
4.217,-2.02E-05
4.218,-2.27E-05
4.219,-2.45E-05
4.22,-2.74E-05
4.221,-2.84E-05
4.222,-2.76E-05
4.223,-2.84E-05
4.224,-2.99E-05
4.225,-2.90E-05
4.226,-2.90E-05
4.227,-2.99E-05
4.228,-3.01E-05
4.229,-2.93E-05
4.23,-2.88E-05
4.231,-3.19E-05
4.232,-3.57E-05
4.233,-3.64E-05
4.234,-3.58E-05
4.235,-3.56E-05
4.236,-3.64E-05
4.237,-3.90E-05
4.238,-3.90E-05
4.239,-3.54E-05
4.24,-3.34E-05
4.241,-3.21E-05
4.242,-3.05E-05
4.243,-3.13E-05
4.244,-2.94E-05
4.245,-2.45E-05
4.246,-2.24E-05
4.247,-2.27E-05
4.248,-2.35E-05
4.249,-2.13E-05
4.25,-1.76E-05
4.251,-1.49E-05
4.252,-1.36E-05
4.253,-1.12E-05
4.254,-5.73E-06
4.255,-5.40E-06
4.256,-3.64E-06
4.257,1.18E-06
4.258,3.77E-06
4.259,8.12E-06
4.26,1.16E-05
4.261,1.29E-05
4.262,1.58E-05
4.263,1.92E-05
4.264,1.91E-05
4.265,1.91E-05
4.266,1.49E-05
4.267,1.34E-05
4.268,1.42E-05
4.269,1.02E-05
4.27,7.91E-06
4.271,6.44E-06
4.272,4.21E-06
4.273,2.21E-06
4.274,-8.59E-07
4.275,-4.85E-06
4.276,-5.53E-06
4.277,-6.97E-06
4.278,-7.78E-06
4.279,-7.09E-06
4.28,-8.63E-06
4.281,-9.84E-06
4.282,-1.10E-05
4.283,-1.32E-05
4.284,-1.51E-05
4.285,-1.61E-05
4.286,-1.88E-05
4.287,-2.18E-05
4.288,-2.50E-05
4.289,-2.93E-05
4.29,-3.25E-05
4.291,-3.74E-05
4.292,-4.08E-05
4.293,-4.38E-05
4.294,-4.80E-05
4.295,-5.27E-05
4.296,-5.63E-05
4.297,-5.95E-05
4.298,-6.48E-05
4.299,-6.12E-05
4.3,-5.64E-05
4.301,-5.82E-05
4.302,-5.97E-05
4.303,-5.83E-05
4.304,-5.56E-05
4.305,-5.40E-05
4.306,-5.10E-05
4.307,-4.70E-05
4.308,-4.14E-05
4.309,-3.66E-05
4.31,-3.32E-05
4.311,-2.69E-05
4.312,-1.73E-05
4.313,-9.59E-06
4.314,-2.78E-06
4.315,7.95E-06
4.316,1.74E-05
4.317,2.64E-05
4.318,3.53E-05
4.319,4.21E-05
4.32,4.59E-05
4.321,4.83E-05
4.322,5.44E-05
4.323,5.49E-05
4.324,5.25E-05
4.325,5.44E-05
4.326,5.57E-05
4.327,5.40E-05
4.328,5.29E-05
4.329,5.04E-05
4.33,4.62E-05
4.331,4.31E-05
4.332,3.70E-05
4.333,3.42E-05
4.334,3.42E-05
4.335,3.41E-05
4.336,3.68E-05
4.337,3.93E-05
4.338,4.14E-05
4.339,4.35E-05
4.34,4.33E-05
4.341,4.13E-05
4.342,3.94E-05
4.343,3.79E-05
4.344,3.67E-05
4.345,3.41E-05
4.346,3.01E-05
4.347,2.50E-05
4.348,1.87E-05
4.349,1.33E-05
4.35,7.89E-06
4.351,3.34E-06
4.352,-4.79E-07
4.353,-5.41E-06
4.354,-1.19E-05
4.355,-1.65E-05
4.356,-2.00E-05
4.357,-2.62E-05
4.358,-3.16E-05
4.359,-3.75E-05
4.36,-4.17E-05
4.361,-4.51E-05
4.362,-4.97E-05
4.363,-5.29E-05
4.364,-5.58E-05
4.365,-5.89E-05
4.366,-6.24E-05
4.367,-6.38E-05
4.368,-6.59E-05
4.369,-6.74E-05
4.37,-6.82E-05
4.371,-7.05E-05
4.372,-6.85E-05
4.373,-6.52E-05
4.374,-6.65E-05
4.375,-6.75E-05
4.376,-6.60E-05
4.377,-6.56E-05
4.378,-6.43E-05
4.379,-6.47E-05
4.38,-6.58E-05
4.381,-6.57E-05
4.382,-6.61E-05
4.383,-6.57E-05
4.384,-6.71E-05
4.385,-6.88E-05
4.386,-6.91E-05
4.387,-6.69E-05
4.388,-6.23E-05
4.389,-5.90E-05
4.39,-5.74E-05
4.391,-5.49E-05
4.392,-5.06E-05
4.393,-4.51E-05
4.394,-3.68E-05
4.395,-3.21E-05
4.396,-3.17E-05
4.397,-3.07E-05
4.398,-2.58E-05
4.399,-1.85E-05
4.4,-1.52E-05
4.401,-1.35E-05
4.402,-1.10E-05
4.403,-9.03E-06
4.404,-8.65E-06
4.405,-8.00E-06
4.406,-8.31E-06
4.407,-8.74E-06
4.408,-8.55E-06
4.409,-8.98E-06
4.41,-9.01E-06
4.411,-9.79E-06
4.412,-9.92E-06
4.413,-9.99E-06
4.414,-1.17E-05
4.415,-1.30E-05
4.416,-1.43E-05
4.417,-1.54E-05
4.418,-1.65E-05
4.419,-1.72E-05
4.42,-1.96E-05
4.421,-2.13E-05
4.422,-2.17E-05
4.423,-2.37E-05
4.424,-2.48E-05
4.425,-2.72E-05
4.426,-2.93E-05
4.427,-3.06E-05
4.428,-3.33E-05
4.429,-3.23E-05
4.43,-3.06E-05
4.431,-3.07E-05
4.432,-3.22E-05
4.433,-3.23E-05
4.434,-3.09E-05
4.435,-3.21E-05
4.436,-3.40E-05
4.437,-3.37E-05
4.438,-3.14E-05
4.439,-3.38E-05
4.44,-3.64E-05
4.441,-3.63E-05
4.442,-3.68E-05
4.443,-3.75E-05
4.444,-3.89E-05
4.445,-3.66E-05
4.446,-3.35E-05
4.447,-3.45E-05
4.448,-3.36E-05
4.449,-3.24E-05
4.45,-3.19E-05
4.451,-2.95E-05
4.452,-2.80E-05
4.453,-2.50E-05
4.454,-2.33E-05
4.455,-2.21E-05
4.456,-2.10E-05
4.457,-1.82E-05
4.458,-1.80E-05
4.459,-2.13E-05
4.46,-1.75E-05
4.461,-1.39E-05
4.462,-1.23E-05
4.463,-9.97E-06
4.464,-8.26E-06
4.465,-8.95E-06
4.466,-9.40E-06
4.467,-6.59E-06
4.468,-4.16E-06
4.469,-4.28E-06
4.47,-4.28E-06
4.471,-5.17E-06
4.472,-6.56E-06
4.473,-4.72E-06
4.474,-3.22E-06
4.475,-4.90E-06
4.476,-6.61E-06
4.477,-6.69E-06
4.478,-8.09E-06
4.479,-1.02E-05
4.48,-9.27E-06
4.481,-9.09E-06
4.482,-1.17E-05
4.483,-1.31E-05
4.484,-1.19E-05
4.485,-1.17E-05
4.486,-1.21E-05
4.487,-1.36E-05
4.488,-1.61E-05
4.489,-1.55E-05
4.49,-1.22E-05
4.491,-1.40E-05
4.492,-1.80E-05
4.493,-1.50E-05
4.494,-1.62E-05
4.495,-1.89E-05
4.496,-1.66E-05
4.497,-1.89E-05
4.498,-2.00E-05
4.499,-2.18E-05
4.5,-2.49E-05
4.501,-2.42E-05
4.502,-2.55E-05
4.503,-2.62E-05
4.504,-2.73E-05
4.505,-2.98E-05
4.506,-2.99E-05
4.507,-3.07E-05
4.508,-3.06E-05
4.509,-3.06E-05
4.51,-3.06E-05
4.511,-3.03E-05
4.512,-2.90E-05
4.513,-2.69E-05
4.514,-2.67E-05
4.515,-2.67E-05
4.516,-2.55E-05
4.517,-2.55E-05
4.518,-2.41E-05
4.519,-2.19E-05
4.52,-2.07E-05
4.521,-1.76E-05
4.522,-1.65E-05
4.523,-1.59E-05
4.524,-1.11E-05
4.525,-1.17E-05
4.526,-1.47E-05
4.527,-1.32E-05
4.528,-1.08E-05
4.529,-1.02E-05
4.53,-1.01E-05
4.531,-9.22E-06
4.532,-1.07E-05
4.533,-1.20E-05
4.534,-1.18E-05
4.535,-1.18E-05
4.536,-1.21E-05
4.537,-1.43E-05
4.538,-1.30E-05
4.539,-7.68E-06
4.54,-7.73E-06
4.541,-5.49E-06
4.542,-1.14E-06
4.543,-1.18E-06
4.544,4.14E-07
4.545,1.96E-06
4.546,8.06E-07
4.547,1.81E-06
4.548,3.05E-06
4.549,1.65E-06
4.55,3.53E-06
4.551,4.12E-06
4.552,3.27E-06
4.553,3.72E-06
4.554,2.61E-06
4.555,2.27E-06
4.556,2.92E-06
4.557,4.06E-06
4.558,2.60E-06
4.559,1.24E-06
4.56,2.18E-06
4.561,1.22E-06
4.562,-7.29E-07
4.563,5.39E-07
4.564,1.63E-06
4.565,-3.20E-08
4.566,-1.35E-06
4.567,-2.32E-06
4.568,-1.93E-06
4.569,-1.50E-06
4.57,-2.24E-06
4.571,-3.06E-06
4.572,-3.57E-06
4.573,-3.19E-06
4.574,-4.12E-06
4.575,-2.47E-06
4.576,-2.23E-06
4.577,-3.18E-06
4.578,-3.23E-06
4.579,-3.84E-06
4.58,-3.13E-06
4.581,-2.98E-06
4.582,-2.61E-06
4.583,-3.42E-06
4.584,-3.03E-06
4.585,-3.58E-06
4.586,-5.88E-06
4.587,-5.14E-06
4.588,-4.56E-06
4.589,-5.43E-06
4.59,-6.32E-06
4.591,-5.79E-06
4.592,-6.38E-06
4.593,-6.64E-06
4.594,-6.01E-06
4.595,-8.06E-06
4.596,-5.96E-06
4.597,-2.42E-06
4.598,-1.96E-06
4.599,-2.43E-06
4.6,-2.40E-06
4.601,-1.25E-06
4.602,1.64E-06
4.603,6.81E-06
4.604,4.79E-06
4.605,2.77E-06
4.606,4.73E-06
4.607,4.22E-06
4.608,4.88E-06
4.609,3.87E-06
4.61,1.08E-06
4.611,2.67E-06
4.612,4.59E-06
4.613,4.98E-06
4.614,7.14E-06
4.615,4.86E-06
4.616,3.79E-06
4.617,7.07E-06
4.618,8.03E-06
4.619,8.91E-06
4.62,9.24E-06
4.621,1.04E-05
4.622,1.32E-05
4.623,1.09E-05
4.624,9.92E-06
4.625,9.90E-06
4.626,7.93E-06
4.627,8.04E-06
4.628,6.99E-06
4.629,6.60E-06
4.63,6.49E-06
4.631,5.65E-06
4.632,5.76E-06
4.633,7.29E-06
4.634,7.39E-06
4.635,7.23E-06
4.636,7.36E-06
4.637,6.18E-06
4.638,5.57E-06
4.639,5.04E-06
4.64,4.80E-06
4.641,5.38E-06
4.642,3.81E-06
4.643,2.13E-06
4.644,1.34E-06
4.645,-1.12E-06
4.646,-7.49E-07
4.647,-1.95E-06
4.648,-4.23E-06
4.649,-3.88E-06
4.65,-4.32E-06
4.651,-5.74E-06
4.652,-5.74E-06
4.653,-5.41E-06
4.654,-7.02E-06
4.655,-6.87E-06
4.656,-8.24E-06
4.657,-8.42E-06
4.658,-7.40E-06
4.659,-8.59E-06
4.66,-9.41E-06
4.661,-1.04E-05
4.662,-8.94E-06
4.663,-8.18E-06
4.664,-8.54E-06
4.665,-8.03E-06
4.666,-8.93E-06
4.667,-1.00E-05
4.668,-1.08E-05
4.669,-1.06E-05
4.67,-9.23E-06
4.671,-9.63E-06
4.672,-1.00E-05
4.673,-8.62E-06
4.674,-7.34E-06
4.675,-7.16E-06
4.676,-7.56E-06
4.677,-7.96E-06
4.678,-5.84E-06
4.679,-3.62E-06
4.68,-5.84E-06
4.681,-6.49E-06
4.682,-5.07E-06
4.683,-5.43E-06
4.684,-5.12E-06
4.685,-4.07E-06
4.686,-3.12E-06
4.687,-4.62E-06
4.688,-5.04E-06
4.689,-4.97E-06
4.69,-4.55E-06
4.691,-2.61E-06
4.692,-2.73E-06
4.693,1.02E-07
4.694,1.00E-06
4.695,2.59E-06
4.696,5.51E-06
4.697,3.23E-06
4.698,1.35E-06
4.699,-9.00E-07
4.7,-2.66E-06
4.701,-3.15E-06
4.702,-3.49E-06
4.703,-4.99E-06
4.704,-6.79E-06
4.705,-3.94E-06
4.706,-3.31E-06
4.707,-4.83E-06
4.708,-6.50E-06
4.709,-6.89E-06
4.71,-4.96E-06
4.711,-6.36E-06
4.712,-6.85E-06
4.713,-7.06E-06
4.714,-8.81E-06
4.715,-8.58E-06
4.716,-7.55E-06
4.717,-7.89E-06
4.718,-8.03E-06
4.719,-8.25E-06
4.72,-9.80E-06
4.721,-9.86E-06
4.722,-9.23E-06
4.723,-1.04E-05
4.724,-1.11E-05
4.725,-1.11E-05
4.726,-1.07E-05
4.727,-1.08E-05
4.728,-1.15E-05
4.729,-1.30E-05
4.73,-1.54E-05
4.731,-1.48E-05
4.732,-1.33E-05
4.733,-1.50E-05
4.734,-1.65E-05
4.735,-1.64E-05
4.736,-1.53E-05
4.737,-1.49E-05
4.738,-1.49E-05
4.739,-1.30E-05
4.74,-1.24E-05
4.741,-1.33E-05
4.742,-1.23E-05
4.743,-1.19E-05
4.744,-1.08E-05
4.745,-8.48E-06
4.746,-9.34E-06
4.747,-1.01E-05
4.748,-9.72E-06
4.749,-8.95E-06
4.75,-9.11E-06
4.751,-9.71E-06
4.752,-9.86E-06
4.753,-8.38E-06
4.754,-7.39E-06
4.755,-7.29E-06
4.756,-6.81E-06
4.757,-6.83E-06
4.758,-7.12E-06
4.759,-6.77E-06
4.76,-6.71E-06
4.761,-7.59E-06
4.762,-7.96E-06
4.763,-8.66E-06
4.764,-7.27E-06
4.765,-5.46E-06
4.766,-3.74E-06
4.767,-3.35E-06
4.768,-3.45E-06
4.769,-3.21E-06
4.77,-6.03E-06
4.771,-5.48E-06
4.772,1.66E-07
4.773,2.15E-06
4.774,2.65E-07
4.775,2.06E-07
4.776,1.12E-06
4.777,1.16E-06
4.778,-3.86E-07
4.779,-1.94E-06
4.78,-1.91E-06
4.781,-3.05E-06
4.782,-1.22E-06
4.783,1.19E-06
4.784,-6.48E-07
4.785,-1.37E-06
4.786,-2.06E-06
4.787,-2.96E-06
4.788,-2.96E-06
4.789,-2.50E-06
4.79,-1.61E-06
4.791,-1.39E-06
4.792,-2.21E-06
4.793,-2.52E-06
4.794,-6.15E-06
4.795,-8.33E-06
4.796,-6.49E-06
4.797,-8.00E-06
4.798,-5.71E-06
4.799,-3.25E-06
4.8,-3.85E-06
4.801,-4.87E-06
4.802,-6.00E-06
4.803,-4.41E-06
4.804,-4.50E-06
4.805,-3.71E-06
4.806,-3.29E-06
4.807,-4.94E-06
4.808,-6.42E-06
4.809,-8.46E-06
4.81,-9.79E-06
4.811,-1.12E-05
4.812,-1.33E-05
4.813,-1.44E-05
4.814,-1.50E-05
4.815,-1.58E-05
4.816,-1.56E-05
4.817,-1.66E-05
4.818,-1.73E-05
4.819,-1.39E-05
4.82,-1.19E-05
4.821,-1.08E-05
4.822,-9.42E-06
4.823,-1.05E-05
4.824,-1.07E-05
4.825,-8.73E-06
4.826,-9.12E-06
4.827,-9.38E-06
4.828,-9.17E-06
4.829,-1.29E-05
4.83,-1.18E-05
4.831,-8.18E-06
4.832,-8.37E-06
4.833,-7.89E-06
4.834,-9.43E-06
4.835,-9.90E-06
4.836,-8.92E-06
4.837,-9.38E-06
4.838,-9.08E-06
4.839,-9.91E-06
4.84,-9.05E-06
4.841,-7.38E-06
4.842,-6.69E-06
4.843,-5.28E-06
4.844,-2.56E-06
4.845,-2.05E-06
4.846,-2.20E-06
4.847,3.31E-07
4.848,7.87E-07
4.849,1.30E-06
4.85,1.92E-06
4.851,1.71E-06
4.852,2.56E-06
4.853,2.87E-06
4.854,1.37E-06
4.855,1.53E-06
4.856,3.10E-06
4.857,3.15E-06
4.858,3.24E-06
4.859,2.81E-06
4.86,1.58E-06
4.861,1.23E-06
4.862,2.36E-07
4.863,8.42E-07
4.864,2.29E-06
4.865,1.51E-06
4.866,8.51E-07
4.867,1.93E-07
4.868,-8.67E-07
4.869,-2.10E-06
4.87,-3.25E-06
4.871,-3.85E-06
4.872,-5.01E-06
4.873,-6.05E-06
4.874,-6.52E-06
4.875,-5.59E-06
4.876,-5.47E-06
4.877,-6.61E-06
4.878,-6.38E-06
4.879,-7.09E-06
4.88,-7.35E-06
4.881,-6.66E-06
4.882,-5.50E-06
4.883,-4.31E-06
4.884,-9.08E-06
4.885,-1.51E-05
4.886,-2.04E-05
4.887,-2.34E-05
4.888,-2.07E-05
4.889,-2.19E-05
4.89,-2.60E-05
4.891,-2.77E-05
4.892,-2.91E-05
4.893,-2.64E-05
4.894,-2.31E-05
4.895,-2.26E-05
4.896,-2.14E-05
4.897,-1.79E-05
4.898,-1.53E-05
4.899,-1.60E-05
4.9,-1.32E-05
4.901,-1.03E-05
4.902,-8.32E-06
4.903,-6.17E-06
4.904,-6.14E-06
4.905,-6.94E-06
4.906,-5.71E-06
4.907,-4.57E-06
4.908,-3.88E-06
4.909,-3.23E-06
4.91,-2.74E-06
4.911,3.06E-08
4.912,6.35E-07
4.913,2.60E-06
4.914,2.87E-06
4.915,3.21E-06
4.916,4.60E-06
4.917,4.76E-06
4.918,4.92E-06
4.919,6.05E-06
4.92,8.91E-06
4.921,7.85E-06
4.922,7.53E-06
4.923,9.26E-06
4.924,1.06E-05
4.925,1.23E-05
4.926,1.28E-05
4.927,1.40E-05
4.928,1.68E-05
4.929,1.90E-05
4.93,1.83E-05
4.931,1.90E-05
4.932,1.98E-05
4.933,1.93E-05
4.934,1.78E-05
4.935,1.41E-05
4.936,1.15E-05
4.937,1.03E-05
4.938,1.02E-05
4.939,1.02E-05
4.94,7.39E-06
4.941,4.89E-06
4.942,3.18E-07
4.943,-4.52E-06
4.944,-2.92E-06
4.945,-4.84E-06
4.946,-1.00E-05
4.947,-1.44E-05
4.948,-1.76E-05
4.949,-1.94E-05
4.95,-2.43E-05
4.951,-2.75E-05
4.952,-2.73E-05
4.953,-2.68E-05
4.954,-2.54E-05
4.955,-2.51E-05
4.956,-2.63E-05
4.957,-2.56E-05
4.958,-2.52E-05
4.959,-2.33E-05
4.96,-2.25E-05
4.961,-2.35E-05
4.962,-2.43E-05
4.963,-2.71E-05
4.964,-2.60E-05
4.965,-2.63E-05
4.966,-2.89E-05
4.967,-2.87E-05
4.968,-3.30E-05
4.969,-3.38E-05
4.97,-2.97E-05
4.971,-3.06E-05
4.972,-2.94E-05
4.973,-2.45E-05
4.974,-2.22E-05
4.975,-2.05E-05
4.976,-1.83E-05
4.977,-1.78E-05
4.978,-1.79E-05
4.979,-1.55E-05
4.98,-1.34E-05
4.981,-1.10E-05
4.982,-8.08E-06
4.983,-7.23E-06
4.984,-6.02E-06
4.985,-6.07E-06
4.986,-2.22E-06
4.987,3.40E-06
4.988,4.84E-06
4.989,7.43E-06
4.99,1.12E-05
4.991,1.27E-05
4.992,1.33E-05
4.993,1.49E-05
4.994,1.40E-05
4.995,1.59E-05
4.996,1.50E-05
4.997,1.08E-05
4.998,1.00E-05
4.999,8.60E-06
5,7.67E-06
5.001,5.62E-06
5.002,2.82E-06
5.003,1.99E-06
5.004,1.52E-06
5.005,-1.02E-06
5.006,-2.48E-06
5.007,-2.81E-06
5.008,-4.74E-06
5.009,-9.00E-06
5.01,-1.04E-05
5.011,-1.04E-05
5.012,-1.26E-05
5.013,-1.40E-05
5.014,-1.67E-05
5.015,-1.88E-05
5.016,-1.91E-05
5.017,-2.00E-05
5.018,-2.30E-05
5.019,-2.57E-05
5.02,-2.73E-05
5.021,-2.99E-05
5.022,-3.23E-05
5.023,-3.64E-05
5.024,-4.28E-05
5.025,-4.74E-05
5.026,-4.97E-05
5.027,-5.36E-05
5.028,-5.55E-05
5.029,-5.67E-05
5.03,-5.92E-05
5.031,-5.87E-05
5.032,-5.66E-05
5.033,-5.48E-05
5.034,-5.32E-05
5.035,-4.91E-05
5.036,-4.35E-05
5.037,-3.99E-05
5.038,-3.57E-05
5.039,-3.26E-05
5.04,-2.94E-05
5.041,-1.77E-05
5.042,-9.74E-06
5.043,-4.15E-06
5.044,2.54E-06
5.045,8.52E-06
5.046,1.75E-05
5.047,2.32E-05
5.048,3.00E-05
5.049,3.83E-05
5.05,4.42E-05
5.051,4.89E-05
5.052,5.17E-05
5.053,5.30E-05
5.054,5.36E-05
5.055,5.43E-05
5.056,5.47E-05
5.057,5.31E-05
5.058,5.12E-05
5.059,4.87E-05
5.06,4.27E-05
5.061,3.76E-05
5.062,3.65E-05
5.063,3.57E-05
5.064,3.39E-05
5.065,3.36E-05
5.066,3.50E-05
5.067,3.77E-05
5.068,4.05E-05
5.069,4.04E-05
5.07,4.03E-05
5.071,3.76E-05
5.072,3.40E-05
5.073,3.29E-05
5.074,2.94E-05
5.075,2.89E-05
5.076,2.67E-05
5.077,2.09E-05
5.078,1.63E-05
5.079,1.29E-05
5.08,9.02E-06
5.081,4.00E-06
5.082,3.97E-07
5.083,-2.90E-06
5.084,-5.30E-06
5.085,-1.18E-05
5.086,-2.03E-05
5.087,-2.56E-05
5.088,-3.25E-05
5.089,-3.89E-05
5.09,-4.43E-05
5.091,-4.94E-05
5.092,-5.25E-05
5.093,-5.41E-05
5.094,-5.69E-05
5.095,-6.02E-05
5.096,-6.23E-05
5.097,-6.37E-05
5.098,-6.39E-05
5.099,-6.36E-05
5.1,-6.29E-05
5.101,-6.23E-05
5.102,-6.16E-05
5.103,-6.08E-05
5.104,-6.30E-05
5.105,-6.62E-05
5.106,-6.40E-05
5.107,-6.38E-05
5.108,-6.57E-05
5.109,-6.64E-05
5.11,-6.67E-05
5.111,-6.65E-05
5.112,-6.65E-05
5.113,-6.72E-05
5.114,-6.80E-05
5.115,-6.72E-05
5.116,-6.77E-05
5.117,-6.42E-05
5.118,-6.07E-05
5.119,-6.05E-05
5.12,-5.73E-05
5.121,-5.49E-05
5.122,-5.48E-05
5.123,-4.86E-05
5.124,-3.77E-05
5.125,-3.39E-05
5.126,-3.14E-05
5.127,-2.65E-05
5.128,-2.25E-05
5.129,-1.96E-05
5.13,-1.50E-05
5.131,-1.25E-05
5.132,-1.19E-05
5.133,-1.05E-05
5.134,-9.88E-06
5.135,-7.67E-06
5.136,-7.04E-06
5.137,-7.09E-06
5.138,-6.74E-06
5.139,-7.34E-06
5.14,-6.55E-06
5.141,-6.68E-06
5.142,-7.54E-06
5.143,-8.76E-06
5.144,-1.17E-05
5.145,-1.44E-05
5.146,-1.53E-05
5.147,-1.75E-05
5.148,-1.96E-05
5.149,-2.10E-05
5.15,-2.38E-05
5.151,-2.53E-05
5.152,-2.49E-05
5.153,-2.68E-05
5.154,-2.84E-05
5.155,-2.85E-05
5.156,-2.97E-05
5.157,-2.97E-05
5.158,-2.95E-05
5.159,-2.99E-05
5.16,-3.00E-05
5.161,-2.98E-05
5.162,-3.07E-05
5.163,-3.13E-05
5.164,-2.96E-05
5.165,-2.98E-05
5.166,-3.17E-05
5.167,-3.40E-05
5.168,-3.47E-05
5.169,-3.82E-05
5.17,-4.15E-05
5.171,-4.07E-05
5.172,-4.09E-05
5.173,-3.68E-05
5.174,-3.53E-05
5.175,-3.65E-05
5.176,-3.62E-05
5.177,-3.63E-05
5.178,-3.48E-05
5.179,-3.31E-05
5.18,-2.83E-05
5.181,-2.65E-05
5.182,-2.54E-05
5.183,-2.30E-05
5.184,-2.11E-05
5.185,-1.92E-05
5.186,-1.84E-05
5.187,-1.73E-05
5.188,-1.65E-05
5.189,-1.47E-05
5.19,-1.09E-05
5.191,-8.37E-06
5.192,-9.24E-06
5.193,-1.00E-05
5.194,-8.74E-06
5.195,-8.04E-06
5.196,-7.48E-06
5.197,-5.38E-06
5.198,-3.73E-06
5.199,-1.96E-06
5.2,-1.79E-06
5.201,-2.25E-06
5.202,-1.67E-06
5.203,-1.28E-06
5.204,-1.79E-06
5.205,-3.09E-06
5.206,-3.49E-06
5.207,-5.76E-06
5.208,-5.35E-06
5.209,-4.32E-06
5.21,-5.71E-06
5.211,-7.69E-06
5.212,-8.72E-06
5.213,-9.87E-06
5.214,-1.15E-05
5.215,-1.02E-05
5.216,-1.08E-05
5.217,-1.21E-05
5.218,-1.21E-05
5.219,-1.14E-05
5.22,-1.11E-05
5.221,-1.16E-05
5.222,-1.19E-05
5.223,-1.40E-05
5.224,-1.55E-05
5.225,-1.80E-05
5.226,-2.00E-05
5.227,-2.41E-05
5.228,-2.55E-05
5.229,-2.10E-05
5.23,-2.07E-05
5.231,-2.20E-05
5.232,-2.55E-05
5.233,-2.73E-05
5.234,-2.80E-05
5.235,-2.85E-05
5.236,-2.79E-05
5.237,-2.81E-05
5.238,-2.80E-05
5.239,-2.74E-05
5.24,-2.73E-05
5.241,-2.81E-05
5.242,-2.83E-05
5.243,-2.85E-05
5.244,-2.75E-05
5.245,-2.74E-05
5.246,-2.73E-05
5.247,-2.64E-05
5.248,-2.56E-05
5.249,-2.39E-05
5.25,-2.42E-05
5.251,-2.39E-05
5.252,-2.24E-05
5.253,-2.04E-05
5.254,-1.83E-05
5.255,-1.71E-05
5.256,-1.62E-05
5.257,-1.35E-05
5.258,-1.08E-05
5.259,-1.02E-05
5.26,-7.56E-06
5.261,-5.71E-06
5.262,-9.24E-06
5.263,-1.13E-05
5.264,-8.74E-06
5.265,-6.83E-06
5.266,-6.84E-06
5.267,-7.83E-06
5.268,-8.32E-06
5.269,-8.98E-06
5.27,-7.16E-06
5.271,-5.47E-06
5.272,-6.29E-06
5.273,-6.07E-06
5.274,-6.34E-06
5.275,-3.77E-06
5.276,-3.23E-07
5.277,1.34E-06
5.278,2.36E-06
5.279,3.99E-06
5.28,5.01E-06
5.281,4.91E-06
5.282,3.41E-06
5.283,3.03E-06
5.284,3.81E-06
5.285,1.90E-06
5.286,3.04E-06
5.287,4.57E-06
5.288,1.69E-06
5.289,2.26E-07
5.29,4.64E-07
5.291,-2.12E-07
5.292,-2.25E-07
5.293,2.04E-07
5.294,7.59E-07
5.295,2.36E-07
5.296,-1.36E-06
5.297,-2.40E-06
5.298,-1.15E-06
5.299,-1.58E-06
5.3,-4.03E-06
5.301,-4.56E-06
5.302,-3.66E-06
5.303,-2.59E-06
5.304,-3.66E-06
5.305,-4.99E-06
5.306,-5.11E-06
5.307,-5.66E-06
5.308,-6.89E-06
5.309,-6.24E-06
5.31,-4.45E-06
5.311,-4.95E-06
5.312,-5.15E-06
5.313,-4.24E-06
5.314,-3.80E-06
5.315,-3.92E-06
5.316,-5.85E-06
5.317,-6.88E-06
5.318,-6.17E-06
5.319,-5.31E-06
5.32,-5.29E-06
5.321,-5.21E-06
5.322,-6.48E-06
5.323,-6.70E-06
5.324,-5.09E-06
5.325,-5.55E-06
5.326,-4.87E-06
5.327,-6.54E-06
5.328,-7.45E-06
5.329,-5.66E-06
5.33,-6.17E-06
5.331,-6.25E-06
5.332,-6.19E-06
5.333,-5.30E-06
5.334,-3.20E-06
5.335,-1.61E-06
5.336,-6.75E-07
5.337,8.54E-07
5.338,1.64E-06
5.339,1.37E-07
5.34,2.23E-06
5.341,2.91E-06
5.342,1.78E-06
5.343,3.88E-06
5.344,3.13E-06
5.345,3.09E-06
5.346,3.48E-06
5.347,1.45E-06
5.348,3.90E-06
5.349,5.65E-06
5.35,4.86E-06
5.351,6.11E-06
5.352,6.83E-06
5.353,7.58E-06
5.354,7.49E-06
5.355,4.93E-06
5.356,5.67E-06
5.357,1.11E-05
5.358,1.08E-05
5.359,8.37E-06
5.36,7.79E-06
5.361,6.38E-06
5.362,6.39E-06
5.363,5.69E-06
5.364,7.10E-06
5.365,5.24E-06
5.366,1.99E-06
5.367,2.83E-06
5.368,4.02E-06
5.369,4.20E-06
5.37,3.83E-06
5.371,5.14E-06
5.372,3.82E-06
5.373,8.54E-07
5.374,-1.56E-06
5.375,-7.86E-07
5.376,-8.99E-11
5.377,-3.46E-06
5.378,-4.22E-06
5.379,-2.66E-06
5.38,-2.35E-06
5.381,-3.60E-06
5.382,-5.72E-06
5.383,-6.83E-06
5.384,-7.07E-06
5.385,-8.67E-06
5.386,-9.74E-06
5.387,-1.10E-05
5.388,-1.20E-05
5.389,-1.34E-05
5.39,-1.42E-05
5.391,-1.55E-05
5.392,-1.71E-05
5.393,-1.74E-05
5.394,-1.89E-05
5.395,-1.78E-05
5.396,-1.80E-05
5.397,-1.87E-05
5.398,-1.62E-05
5.399,-1.62E-05
5.4,-1.76E-05
5.401,-1.35E-05
5.402,-1.08E-05
5.403,-1.25E-05
5.404,-1.25E-05
5.405,-1.32E-05
5.406,-1.22E-05
5.407,-1.21E-05
5.408,-1.25E-05
5.409,-1.20E-05
5.41,-1.23E-05
5.411,-1.07E-05
5.412,-7.56E-06
5.413,-7.75E-06
5.414,-9.18E-06
5.415,-8.95E-06
5.416,-1.00E-05
5.417,-9.28E-06
5.418,-9.14E-06
5.419,-7.89E-06
5.42,-6.10E-06
5.421,-6.41E-06
5.422,-9.27E-06
5.423,-1.14E-05
5.424,-7.25E-06
5.425,-6.48E-06
5.426,-6.21E-06
5.427,-5.56E-06
5.428,-5.86E-06
5.429,-6.48E-06
5.43,-6.99E-06
5.431,-2.76E-06
5.432,2.16E-07
5.433,7.84E-07
5.434,2.92E-07
5.435,3.15E-07
5.436,5.53E-07
5.437,2.88E-08
5.438,2.84E-07
5.439,-2.29E-07
5.44,-9.53E-07
5.441,-1.34E-06
5.442,-3.03E-06
5.443,-4.42E-06
5.444,-4.17E-06
5.445,-6.40E-06
5.446,-7.80E-06
5.447,-8.30E-06
5.448,-1.17E-05
5.449,-1.25E-05
5.45,-1.15E-05
5.451,-1.07E-05
5.452,-1.12E-05
5.453,-1.35E-05
5.454,-1.58E-05
5.455,-1.57E-05
5.456,-1.69E-05
5.457,-1.56E-05
5.458,-1.24E-05
5.459,-1.35E-05
5.46,-1.36E-05
5.461,-1.36E-05
5.462,-1.41E-05
5.463,-1.60E-05
5.464,-1.55E-05
5.465,-1.37E-05
5.466,-1.38E-05
5.467,-1.08E-05
5.468,-1.20E-05
5.469,-1.77E-05
5.47,-1.96E-05
5.471,-1.97E-05
5.472,-1.90E-05
5.473,-1.81E-05
5.474,-1.78E-05
5.475,-1.76E-05
5.476,-1.87E-05
5.477,-1.84E-05
5.478,-1.77E-05
5.479,-1.69E-05
5.48,-1.67E-05
5.481,-1.69E-05
5.482,-1.57E-05
5.483,-1.50E-05
5.484,-1.49E-05
5.485,-1.49E-05
5.486,-1.42E-05
5.487,-1.23E-05
5.488,-1.18E-05
5.489,-1.06E-05
5.49,-9.22E-06
5.491,-9.25E-06
5.492,-7.84E-06
5.493,-6.85E-06
5.494,-7.21E-06
5.495,-6.86E-06
5.496,-4.30E-06
5.497,-3.92E-06
5.498,-3.80E-06
5.499,-2.90E-06
5.5,-2.86E-06
5.501,-3.84E-06
5.502,-6.58E-06
5.503,-5.96E-06
5.504,-5.94E-06
5.505,-4.53E-06
5.506,-3.53E-06
5.507,-5.67E-06
5.508,-4.79E-06
5.509,-3.52E-06
5.51,-2.90E-06
5.511,-3.66E-06
5.512,-3.30E-06
5.513,-2.74E-06
5.514,-2.07E-06
5.515,-3.96E-06
5.516,-4.47E-06
5.517,-1.69E-06
5.518,-4.06E-06
5.519,-3.48E-06
5.52,-3.13E-06
5.521,-4.31E-06
5.522,-4.53E-06
5.523,-3.41E-06
5.524,-1.10E-06
5.525,-3.31E-06
5.526,-3.20E-06
5.527,-2.50E-06
5.528,-3.62E-06
5.529,-4.27E-06
5.53,-4.17E-06
5.531,-5.09E-06
5.532,-6.41E-06
5.533,-6.91E-06
5.534,-7.75E-06
5.535,-7.39E-06
5.536,-7.51E-06
5.537,-8.16E-06
5.538,-9.04E-06
5.539,-9.83E-06
5.54,-9.82E-06
5.541,-1.03E-05
5.542,-1.13E-05
5.543,-1.14E-05
5.544,-1.13E-05
5.545,-1.22E-05
5.546,-1.27E-05
5.547,-1.28E-05
5.548,-1.31E-05
5.549,-1.35E-05
5.55,-1.38E-05
5.551,-1.39E-05
5.552,-1.44E-05
5.553,-1.44E-05
5.554,-1.42E-05
5.555,-1.39E-05
5.556,-1.42E-05
5.557,-1.42E-05
5.558,-1.37E-05
5.559,-1.34E-05
5.56,-1.23E-05
5.561,-1.16E-05
5.562,-1.47E-05
5.563,-1.59E-05
5.564,-1.40E-05
5.565,-1.41E-05
5.566,-1.40E-05
5.567,-1.50E-05
5.568,-1.82E-05
5.569,-1.67E-05
5.57,-1.26E-05
5.571,-1.25E-05
5.572,-1.37E-05
5.573,-1.32E-05
5.574,-9.48E-06
5.575,-1.02E-05
5.576,-1.26E-05
5.577,-1.11E-05
5.578,-1.08E-05
5.579,-7.86E-06
5.58,-3.20E-06
5.581,-2.98E-06
5.582,-1.83E-06
5.583,2.12E-07
5.584,-3.58E-06
5.585,-4.04E-06
5.586,-1.69E-06
5.587,-1.15E-06
5.588,-4.33E-07
5.589,-1.53E-07
5.59,1.09E-06
5.591,8.04E-07
5.592,6.91E-07
5.593,1.47E-06
5.594,2.24E-06
5.595,1.54E-06
5.596,9.67E-07
5.597,2.85E-06
5.598,2.00E-06
5.599,1.84E-06
5.6,1.87E-06
5.601,1.70E-06
5.602,2.33E-06
5.603,1.24E-06
5.604,9.17E-07
5.605,6.48E-07
5.606,-9.24E-08
5.607,-7.26E-07
5.608,-1.57E-06
5.609,-2.34E-06
5.61,-3.63E-06
5.611,-5.03E-06
5.612,-5.82E-06
5.613,-7.57E-06
5.614,-8.74E-06
5.615,-9.49E-06
5.616,-1.11E-05
5.617,-1.18E-05
5.618,-1.23E-05
5.619,-1.23E-05
5.62,-1.35E-05
5.621,-1.63E-05
5.622,-1.92E-05
5.623,-1.77E-05
5.624,-1.48E-05
5.625,-1.67E-05
5.626,-1.94E-05
5.627,-2.11E-05
5.628,-2.28E-05
5.629,-2.24E-05
5.63,-2.33E-05
5.631,-2.65E-05
5.632,-2.76E-05
5.633,-2.85E-05
5.634,-2.77E-05
5.635,-2.66E-05
5.636,-2.66E-05
5.637,-2.61E-05
5.638,-2.38E-05
5.639,-2.29E-05
5.64,-2.15E-05
5.641,-1.87E-05
5.642,-1.85E-05
5.643,-1.41E-05
5.644,-1.22E-05
5.645,-1.33E-05
5.646,-1.11E-05
5.647,-9.31E-06
5.648,-6.06E-06
5.649,-4.17E-06
5.65,-4.69E-06
5.651,-5.12E-06
5.652,-1.07E-06
5.653,3.04E-06
5.654,2.07E-06
5.655,4.55E-06
5.656,5.02E-06
5.657,5.62E-06
5.658,9.00E-06
5.659,9.54E-06
5.66,1.00E-05
5.661,1.16E-05
5.662,1.29E-05
5.663,1.08E-05
5.664,1.04E-05
5.665,9.04E-06
5.666,7.24E-06
5.667,8.03E-06
5.668,7.83E-06
5.669,8.41E-06
5.67,1.00E-05
5.671,1.10E-05
5.672,1.12E-05
5.673,1.16E-05
5.674,1.35E-05
5.675,1.39E-05
5.676,1.68E-05
5.677,1.87E-05
5.678,1.54E-05
5.679,1.40E-05
5.68,1.07E-05
5.681,9.05E-06
5.682,7.05E-06
5.683,4.62E-06
5.684,2.25E-06
5.685,-1.46E-06
5.686,-2.39E-06
5.687,-6.92E-06
5.688,-1.28E-05
5.689,-1.71E-05
5.69,-1.98E-05
5.691,-2.53E-05
5.692,-3.05E-05
5.693,-3.17E-05
5.694,-3.40E-05
5.695,-3.55E-05
5.696,-3.62E-05
5.697,-3.66E-05
5.698,-3.45E-05
5.699,-3.23E-05
5.7,-3.29E-05
5.701,-3.34E-05
5.702,-3.26E-05
5.703,-3.09E-05
5.704,-2.98E-05
5.705,-2.91E-05
5.706,-2.81E-05
5.707,-3.07E-05
5.708,-3.25E-05
5.709,-3.26E-05
5.71,-3.13E-05
5.711,-2.95E-05
5.712,-2.85E-05
5.713,-2.73E-05
5.714,-2.71E-05
5.715,-2.52E-05
5.716,-2.34E-05
5.717,-2.05E-05
5.718,-1.80E-05
5.719,-1.81E-05
5.72,-1.45E-05
5.721,-1.40E-05
5.722,-1.49E-05
5.723,-1.24E-05
5.724,-1.07E-05
5.725,-8.90E-06
5.726,-7.76E-06
5.727,-4.52E-06
5.728,-1.27E-06
5.729,2.30E-06
5.73,6.58E-06
5.731,9.92E-06
5.732,1.43E-05
5.733,1.70E-05
5.734,1.79E-05
5.735,1.92E-05
5.736,2.04E-05
5.737,2.25E-05
5.738,2.12E-05
5.739,2.08E-05
5.74,2.00E-05
5.741,1.57E-05
5.742,1.66E-05
5.743,1.34E-05
5.744,1.04E-05
5.745,8.98E-06
5.746,3.65E-06
5.747,1.72E-06
5.748,-1.28E-06
5.749,-5.48E-06
5.75,-7.19E-06
5.751,-7.52E-06
5.752,-9.19E-06
5.753,-1.23E-05
5.754,-1.39E-05
5.755,-1.56E-05
5.756,-1.82E-05
5.757,-1.96E-05
5.758,-2.21E-05
5.759,-2.45E-05
5.76,-2.75E-05
5.761,-2.98E-05
5.762,-3.01E-05
5.763,-3.16E-05
5.764,-3.45E-05
5.765,-3.76E-05
5.766,-3.74E-05
5.767,-4.06E-05
5.768,-4.85E-05
5.769,-5.30E-05
5.77,-5.55E-05
5.771,-5.59E-05
5.772,-5.72E-05
5.773,-5.73E-05
5.774,-5.69E-05
5.775,-6.06E-05
5.776,-5.84E-05
5.777,-5.61E-05
5.778,-5.22E-05
5.779,-4.23E-05
5.78,-3.78E-05
5.781,-3.50E-05
5.782,-3.08E-05
5.783,-2.47E-05
5.784,-1.79E-05
5.785,-1.21E-05
5.786,-3.99E-06
5.787,4.52E-06
5.788,1.25E-05
5.789,2.14E-05
5.79,2.97E-05
5.791,3.79E-05
5.792,4.57E-05
5.793,5.10E-05
5.794,5.53E-05
5.795,5.90E-05
5.796,6.12E-05
5.797,6.30E-05
5.798,6.38E-05
5.799,6.36E-05
5.8,6.24E-05
5.801,5.96E-05
5.802,5.70E-05
5.803,5.24E-05
5.804,4.62E-05
5.805,4.18E-05
5.806,4.00E-05
5.807,3.87E-05
5.808,3.77E-05
5.809,3.70E-05
5.81,3.86E-05
5.811,4.14E-05
5.812,4.16E-05
5.813,4.00E-05
5.814,3.94E-05
5.815,3.75E-05
5.816,3.34E-05
5.817,3.01E-05
5.818,2.55E-05
5.819,2.36E-05
5.82,2.09E-05
5.821,1.70E-05
5.822,1.66E-05
5.823,1.18E-05
5.824,5.39E-06
5.825,2.28E-06
5.826,-2.20E-06
5.827,-7.87E-06
5.828,-1.29E-05
5.829,-1.87E-05
5.83,-2.36E-05
5.831,-3.06E-05
5.832,-3.79E-05
5.833,-4.38E-05
5.834,-4.95E-05
5.835,-5.27E-05
5.836,-5.58E-05
5.837,-5.85E-05
5.838,-6.17E-05
5.839,-6.37E-05
5.84,-6.41E-05
5.841,-6.50E-05
5.842,-6.68E-05
5.843,-6.77E-05
5.844,-6.69E-05
5.845,-6.67E-05
5.846,-6.74E-05
5.847,-6.75E-05
5.848,-6.77E-05
5.849,-6.78E-05
5.85,-6.79E-05
5.851,-6.85E-05
5.852,-6.79E-05
5.853,-6.78E-05
5.854,-6.79E-05
5.855,-6.74E-05
5.856,-6.80E-05
5.857,-6.78E-05
5.858,-6.56E-05
5.859,-6.32E-05
5.86,-6.14E-05
5.861,-5.82E-05
5.862,-5.47E-05
5.863,-5.06E-05
5.864,-4.61E-05
5.865,-4.32E-05
5.866,-3.78E-05
5.867,-3.48E-05
5.868,-3.06E-05
5.869,-2.38E-05
5.87,-2.04E-05
5.871,-1.61E-05
5.872,-1.21E-05
5.873,-7.76E-06
5.874,-4.75E-06
5.875,-4.96E-06
5.876,-4.84E-06
5.877,-4.25E-06
5.878,-2.91E-06
5.879,-3.34E-08
5.88,1.46E-06
5.881,8.26E-07
5.882,-3.67E-06
5.883,-4.32E-06
5.884,-1.70E-06
5.885,-2.15E-06
5.886,-2.28E-06
5.887,-7.13E-06
5.888,-7.91E-06
5.889,-1.01E-05
5.89,-1.46E-05
5.891,-1.46E-05
5.892,-1.71E-05
5.893,-1.81E-05
5.894,-2.05E-05
5.895,-2.15E-05
5.896,-2.08E-05
5.897,-2.33E-05
5.898,-2.56E-05
5.899,-2.56E-05
5.9,-2.57E-05
5.901,-2.76E-05
5.902,-2.78E-05
5.903,-2.66E-05
5.904,-2.82E-05
5.905,-3.00E-05
5.906,-3.01E-05
5.907,-3.08E-05
5.908,-3.30E-05
5.909,-3.47E-05
5.91,-3.70E-05
5.911,-3.98E-05
5.912,-4.05E-05
5.913,-4.12E-05
5.914,-4.10E-05
5.915,-4.04E-05
5.916,-4.08E-05
5.917,-4.01E-05
5.918,-3.76E-05
5.919,-3.66E-05
5.92,-3.60E-05
5.921,-3.49E-05
5.922,-3.36E-05
5.923,-3.15E-05
5.924,-2.96E-05
5.925,-2.77E-05
5.926,-2.62E-05
5.927,-2.51E-05
5.928,-2.45E-05
5.929,-2.33E-05
5.93,-2.13E-05
5.931,-1.99E-05
5.932,-1.86E-05
5.933,-1.75E-05
5.934,-1.59E-05
5.935,-1.43E-05
5.936,-1.31E-05
5.937,-1.14E-05
5.938,-1.02E-05
5.939,-9.37E-06
5.94,-7.71E-06
5.941,-6.47E-06
5.942,-7.58E-06
5.943,-7.05E-06
5.944,-6.49E-06
5.945,-6.39E-06
5.946,-3.15E-06
5.947,-4.24E-06
5.948,-7.35E-06
5.949,-8.45E-06
5.95,-8.31E-06
5.951,-9.51E-06
5.952,-1.05E-05
5.953,-1.12E-05
5.954,-9.32E-06
5.955,-5.00E-06
5.956,-9.98E-06
5.957,-1.35E-05
5.958,-1.21E-05
5.959,-1.24E-05
5.96,-8.56E-06
5.961,-8.77E-06
5.962,-1.30E-05
5.963,-1.47E-05
5.964,-1.50E-05
5.965,-1.47E-05
5.966,-1.63E-05
5.967,-1.74E-05
5.968,-1.85E-05
5.969,-2.04E-05
5.97,-2.18E-05
5.971,-2.33E-05
5.972,-2.42E-05
5.973,-2.59E-05
5.974,-2.76E-05
5.975,-2.81E-05
5.976,-2.85E-05
5.977,-2.85E-05
5.978,-2.93E-05
5.979,-2.99E-05
5.98,-2.93E-05
5.981,-2.91E-05
5.982,-3.00E-05
5.983,-3.00E-05
5.984,-2.95E-05
5.985,-3.01E-05
5.986,-2.98E-05
5.987,-2.85E-05
5.988,-2.76E-05
5.989,-2.78E-05
5.99,-2.87E-05
5.991,-3.00E-05
5.992,-3.06E-05
5.993,-2.97E-05
5.994,-2.79E-05
5.995,-2.56E-05
5.996,-2.60E-05
5.997,-2.56E-05
5.998,-2.23E-05
5.999,-2.11E-05
6,-1.92E-05
6.001,-1.74E-05
6.002,-1.78E-05
6.003,-1.75E-05
6.004,-1.70E-05
6.005,-1.62E-05
6.006,-1.61E-05
6.007,-1.80E-05
6.008,-1.84E-05
6.009,-1.52E-05
6.01,-1.61E-05
6.011,-1.86E-05
6.012,-1.70E-05
6.013,-1.59E-05
6.014,-1.23E-05
6.015,-8.70E-06
6.016,-7.06E-06
6.017,-6.37E-06
6.018,-4.40E-06
6.019,-2.02E-06
6.02,-9.72E-07
6.021,-6.60E-07
6.022,-1.47E-06
6.023,3.26E-07
6.024,8.90E-07
6.025,5.79E-07
6.026,9.50E-07
6.027,2.51E-07
6.028,-5.90E-07
6.029,-3.65E-07
6.03,7.13E-07
6.031,-3.87E-07
6.032,9.16E-08
6.033,2.10E-06
6.034,2.51E-06
6.035,1.68E-06
6.036,3.10E-06
6.037,4.19E-06
6.038,1.46E-06
6.039,-1.84E-06
6.04,-1.86E-06
6.041,5.55E-07
6.042,1.24E-06
6.043,1.33E-07
6.044,-1.15E-06
6.045,-3.22E-06
6.046,-2.89E-06
6.047,-1.30E-06
6.048,-3.08E-06
6.049,-2.77E-06
6.05,-2.21E-06
6.051,-3.31E-06
6.052,-2.80E-06
6.053,-4.06E-06
6.054,-5.28E-06
6.055,-1.45E-06
6.056,5.69E-07
6.057,-3.82E-06
6.058,-4.89E-06
6.059,-4.94E-06
6.06,-7.29E-06
6.061,-6.43E-06
6.062,-6.59E-06
6.063,-5.98E-06
6.064,-5.29E-06
6.065,-7.81E-06
6.066,-9.64E-06
6.067,-1.11E-05
6.068,-1.16E-05
6.069,-1.06E-05
6.07,-1.04E-05
6.071,-1.06E-05
6.072,-9.43E-06
6.073,-7.47E-06
6.074,-7.23E-06
6.075,-7.84E-06
6.076,-7.37E-06
6.077,-6.29E-06
6.078,-5.15E-06
6.079,-4.52E-06
6.08,-4.02E-06
6.081,-3.76E-06
6.082,-3.32E-06
6.083,-3.26E-06
6.084,-1.63E-06
6.085,2.48E-07
6.086,-1.98E-06
6.087,-3.75E-06
6.088,-3.75E-06
6.089,-2.56E-06
6.09,-8.29E-07
6.091,1.61E-06
6.092,3.78E-06
6.093,3.91E-06
6.094,4.82E-06
6.095,4.46E-06
6.096,5.28E-06
6.097,6.58E-06
6.098,6.57E-06
6.099,6.19E-06
6.1,5.42E-06
6.101,4.81E-06
6.102,4.64E-06
6.103,7.16E-06
6.104,6.82E-06
6.105,5.63E-06
6.106,5.67E-06
6.107,6.10E-06
6.108,5.27E-06
6.109,4.21E-06
6.11,3.95E-06
6.111,3.84E-06
6.112,7.43E-06
6.113,8.71E-06
6.114,6.58E-06
6.115,4.96E-06
6.116,4.28E-06
6.117,3.50E-06
6.118,2.85E-06
6.119,3.29E-06
6.12,2.22E-06
6.121,4.78E-07
6.122,-6.51E-07
6.123,-4.78E-07
6.124,-1.82E-06
6.125,-3.41E-06
6.126,-4.45E-06
6.127,-6.16E-06
6.128,-7.64E-06
6.129,-9.86E-06
6.13,-1.23E-05
6.131,-1.51E-05
6.132,-1.62E-05
6.133,-1.69E-05
6.134,-1.75E-05
6.135,-1.74E-05
6.136,-1.80E-05
6.137,-1.79E-05
6.138,-1.78E-05
6.139,-1.82E-05
6.14,-1.85E-05
6.141,-1.88E-05
6.142,-1.91E-05
6.143,-1.85E-05
6.144,-1.93E-05
6.145,-1.97E-05
6.146,-1.93E-05
6.147,-2.01E-05
6.148,-1.87E-05
6.149,-1.89E-05
6.15,-1.95E-05
6.151,-1.89E-05
6.152,-1.84E-05
6.153,-1.79E-05
6.154,-1.66E-05
6.155,-1.54E-05
6.156,-1.57E-05
6.157,-1.57E-05
6.158,-1.56E-05
6.159,-1.65E-05
6.16,-1.69E-05
6.161,-1.32E-05
6.162,-1.27E-05
6.163,-1.48E-05
6.164,-1.67E-05
6.165,-1.44E-05
6.166,-7.42E-06
6.167,-7.98E-06
6.168,-7.58E-06
6.169,-4.38E-06
6.17,-4.16E-06
6.171,-3.36E-06
6.172,-3.44E-07
6.173,2.36E-06
6.174,3.15E-06
6.175,1.50E-06
6.176,-1.05E-06
6.177,1.30E-06
6.178,1.10E-06
6.179,-1.33E-06
6.18,-7.65E-07
6.181,-5.76E-07
6.182,-1.50E-07
6.183,-7.56E-08
6.184,-2.65E-06
6.185,-4.36E-06
6.186,-4.40E-06
6.187,-5.57E-06
6.188,-5.46E-06
6.189,-7.56E-06
6.19,-9.24E-06
6.191,-8.89E-06
6.192,-8.80E-06
6.193,-1.02E-05
6.194,-1.14E-05
6.195,-1.10E-05
6.196,-1.11E-05
6.197,-1.14E-05
6.198,-1.26E-05
6.199,-1.36E-05
6.2,-1.32E-05
6.201,-1.36E-05
6.202,-1.43E-05
6.203,-1.42E-05
6.204,-1.52E-05
6.205,-1.62E-05
6.206,-1.69E-05
6.207,-1.75E-05
6.208,-1.79E-05
6.209,-1.85E-05
6.21,-2.08E-05
6.211,-2.21E-05
6.212,-2.19E-05
6.213,-2.30E-05
6.214,-2.30E-05
6.215,-2.33E-05
6.216,-2.38E-05
6.217,-2.34E-05
6.218,-2.33E-05
6.219,-2.32E-05
6.22,-2.29E-05
6.221,-2.31E-05
6.222,-2.34E-05
6.223,-2.15E-05
6.224,-2.08E-05
6.225,-2.00E-05
6.226,-1.87E-05
6.227,-1.85E-05
6.228,-1.81E-05
6.229,-1.76E-05
6.23,-1.73E-05
6.231,-1.67E-05
6.232,-1.64E-05
6.233,-1.64E-05
6.234,-1.59E-05
6.235,-1.62E-05
6.236,-1.58E-05
6.237,-1.49E-05
6.238,-1.43E-05
6.239,-1.41E-05
6.24,-1.40E-05
6.241,-1.35E-05
6.242,-1.39E-05
6.243,-1.22E-05
6.244,-1.10E-05
6.245,-1.11E-05
6.246,-8.09E-06
6.247,-8.18E-06
6.248,-1.18E-05
6.249,-1.23E-05
6.25,-1.09E-05
6.251,-1.02E-05
6.252,-9.54E-06
6.253,-9.11E-06
6.254,-8.03E-06
6.255,-7.01E-06
6.256,-6.49E-06
6.257,-6.39E-06
6.258,-7.31E-06
6.259,-6.45E-06
6.26,-7.50E-06
6.261,-9.52E-06
6.262,-1.05E-05
6.263,-1.02E-05
6.264,-1.12E-05
6.265,-1.29E-05
6.266,-1.40E-05
6.267,-1.35E-05
6.268,-1.07E-05
6.269,-1.16E-05
6.27,-8.89E-06
6.271,-8.40E-06
6.272,-1.15E-05
6.273,-1.07E-05
6.274,-1.16E-05
6.275,-1.02E-05
6.276,-1.12E-05
6.277,-1.31E-05
6.278,-1.13E-05
6.279,-1.15E-05
6.28,-1.33E-05
6.281,-1.53E-05
6.282,-1.53E-05
6.283,-1.58E-05
6.284,-1.76E-05
6.285,-1.66E-05
6.286,-1.94E-05
6.287,-2.14E-05
6.288,-2.03E-05
6.289,-2.07E-05
6.29,-2.09E-05
6.291,-2.20E-05
6.292,-2.19E-05
6.293,-2.20E-05
6.294,-2.33E-05
6.295,-2.22E-05
6.296,-2.09E-05
6.297,-2.02E-05
6.298,-2.15E-05
6.299,-2.20E-05
6.3,-1.77E-05
6.301,-1.68E-05
6.302,-1.87E-05
6.303,-1.88E-05
6.304,-1.90E-05
6.305,-1.95E-05
6.306,-1.82E-05
6.307,-1.91E-05
6.308,-2.27E-05
6.309,-2.28E-05
6.31,-2.16E-05
6.311,-2.16E-05
6.312,-2.32E-05
6.313,-2.55E-05
6.314,-2.32E-05
6.315,-2.38E-05
6.316,-2.33E-05
6.317,-2.13E-05
6.318,-2.16E-05
6.319,-1.80E-05
6.32,-1.59E-05
6.321,-1.50E-05
6.322,-1.47E-05
6.323,-1.37E-05
6.324,-1.10E-05
6.325,-1.01E-05
6.326,-9.58E-06
6.327,-7.96E-06
6.328,-7.78E-06
6.329,-6.46E-06
6.33,-4.79E-06
6.331,-3.61E-06
6.332,-1.49E-06
6.333,-2.18E-06
6.334,-3.95E-07
6.335,6.57E-07
6.336,-2.59E-06
6.337,-3.46E-06
6.338,-2.89E-06
6.339,-4.55E-06
6.34,-5.66E-06
6.341,-6.30E-06
6.342,-8.73E-06
6.343,-9.28E-06
6.344,-8.87E-06
6.345,-6.81E-06
6.346,-6.88E-06
6.347,-7.55E-06
6.348,-6.13E-06
6.349,-5.29E-06
6.35,-4.51E-06
6.351,-3.86E-06
6.352,-4.53E-06
6.353,-7.04E-06
6.354,-8.15E-06
6.355,-9.62E-06
6.356,-9.80E-06
6.357,-8.05E-06
6.358,-8.74E-06
6.359,-1.02E-05
6.36,-1.00E-05
6.361,-1.21E-05
6.362,-1.40E-05
6.363,-1.48E-05
6.364,-1.77E-05
6.365,-2.09E-05
6.366,-2.34E-05
6.367,-2.61E-05
6.368,-2.60E-05
6.369,-2.81E-05
6.37,-3.25E-05
6.371,-3.37E-05
6.372,-3.45E-05
6.373,-3.58E-05
6.374,-3.48E-05
6.375,-3.18E-05
6.376,-3.11E-05
6.377,-3.02E-05
6.378,-2.76E-05
6.379,-2.56E-05
6.38,-2.35E-05
6.381,-2.26E-05
6.382,-2.12E-05
6.383,-1.90E-05
6.384,-1.88E-05
6.385,-1.73E-05
6.386,-1.34E-05
6.387,-1.33E-05
6.388,-1.71E-05
6.389,-1.83E-05
6.39,-1.52E-05
6.391,-1.10E-05
6.392,-8.87E-06
6.393,-9.57E-06
6.394,-8.61E-06
6.395,-8.79E-06
6.396,-8.74E-06
6.397,-4.05E-06
6.398,-3.22E-06
6.399,-4.74E-06
6.4,-3.58E-06
6.401,-2.42E-06
6.402,-1.15E-06
6.403,9.47E-07
6.404,2.05E-06
6.405,1.94E-06
6.406,1.45E-06
6.407,3.54E-06
6.408,7.42E-06
6.409,9.72E-06
6.41,1.18E-05
6.411,1.32E-05
6.412,1.38E-05
6.413,1.47E-05
6.414,1.55E-05
6.415,1.60E-05
6.416,1.53E-05
6.417,1.30E-05
6.418,1.16E-05
6.419,1.39E-05
6.42,1.42E-05
6.421,1.01E-05
6.422,7.80E-06
6.423,6.49E-06
6.424,4.06E-06
6.425,1.81E-06
6.426,-2.36E-06
6.427,-6.44E-06
6.428,-8.78E-06
6.429,-1.15E-05
6.43,-1.48E-05
6.431,-1.96E-05
6.432,-2.42E-05
6.433,-2.62E-05
6.434,-2.63E-05
6.435,-2.79E-05
6.436,-2.83E-05
6.437,-2.74E-05
6.438,-2.99E-05
6.439,-3.12E-05
6.44,-3.08E-05
6.441,-3.27E-05
6.442,-3.37E-05
6.443,-3.36E-05
6.444,-3.37E-05
6.445,-3.59E-05
6.446,-3.76E-05
6.447,-3.80E-05
6.448,-3.89E-05
6.449,-3.98E-05
6.45,-4.05E-05
6.451,-4.15E-05
6.452,-4.16E-05
6.453,-3.90E-05
6.454,-3.82E-05
6.455,-3.47E-05
6.456,-3.08E-05
6.457,-3.04E-05
6.458,-2.77E-05
6.459,-2.59E-05
6.46,-2.60E-05
6.461,-2.54E-05
6.462,-2.43E-05
6.463,-2.13E-05
6.464,-1.94E-05
6.465,-1.91E-05
6.466,-1.63E-05
6.467,-1.35E-05
6.468,-1.18E-05
6.469,-7.73E-06
6.47,-4.37E-06
6.471,-1.83E-06
6.472,2.69E-06
6.473,4.52E-06
6.474,5.56E-06
6.475,8.72E-06
6.476,1.30E-05
6.477,1.41E-05
6.478,1.26E-05
6.479,1.69E-05
6.48,1.83E-05
6.481,1.47E-05
6.482,1.35E-05
6.483,1.24E-05
6.484,1.11E-05
6.485,9.35E-06
6.486,6.74E-06
6.487,3.96E-06
6.488,1.10E-06
6.489,-9.71E-07
6.49,-3.86E-06
6.491,-6.20E-06
6.492,-8.34E-06
6.493,-9.65E-06
6.494,-1.01E-05
6.495,-1.28E-05
6.496,-1.45E-05
6.497,-1.54E-05
6.498,-1.62E-05
6.499,-1.74E-05
6.5,-1.95E-05
6.501,-2.16E-05
6.502,-2.41E-05
6.503,-2.85E-05
6.504,-3.20E-05
6.505,-3.36E-05
6.506,-3.85E-05
6.507,-4.45E-05
6.508,-4.73E-05
6.509,-4.85E-05
6.51,-5.20E-05
6.511,-5.46E-05
6.512,-5.76E-05
6.513,-6.00E-05
6.514,-6.16E-05
6.515,-6.43E-05
6.516,-6.43E-05
6.517,-6.27E-05
6.518,-6.05E-05
6.519,-5.99E-05
6.52,-5.76E-05
6.521,-5.39E-05
6.522,-4.95E-05
6.523,-4.33E-05
6.524,-3.94E-05
6.525,-3.48E-05
6.526,-2.69E-05
6.527,-2.11E-05
6.528,-1.55E-05
6.529,-4.28E-06
6.53,7.18E-06
6.531,1.68E-05
6.532,2.59E-05
6.533,3.21E-05
6.534,3.78E-05
6.535,4.25E-05
6.536,4.60E-05
6.537,5.16E-05
6.538,5.46E-05
6.539,5.61E-05
6.54,5.98E-05
6.541,5.77E-05
6.542,5.48E-05
6.543,5.59E-05
6.544,5.36E-05
6.545,4.78E-05
6.546,4.13E-05
6.547,3.67E-05
6.548,3.14E-05
6.549,3.08E-05
6.55,3.42E-05
6.551,3.68E-05
6.552,4.05E-05
6.553,4.14E-05
6.554,4.28E-05
6.555,4.25E-05
6.556,4.10E-05
6.557,4.17E-05
6.558,4.21E-05
6.559,4.24E-05
6.56,3.99E-05
6.561,3.54E-05
6.562,2.95E-05
6.563,2.23E-05
6.564,1.65E-05
6.565,1.30E-05
6.566,8.36E-06
6.567,1.98E-06
6.568,-3.69E-06
6.569,-9.69E-06
6.57,-1.55E-05
6.571,-1.88E-05
6.572,-2.30E-05
6.573,-3.13E-05
6.574,-4.06E-05
6.575,-4.77E-05
6.576,-5.23E-05
6.577,-5.57E-05
6.578,-5.71E-05
6.579,-5.88E-05
6.58,-6.34E-05
6.581,-6.69E-05
6.582,-6.86E-05
6.583,-6.99E-05
6.584,-6.98E-05
6.585,-6.87E-05
6.586,-6.87E-05
6.587,-6.79E-05
6.588,-6.75E-05
6.589,-6.82E-05
6.59,-6.69E-05
6.591,-6.69E-05
6.592,-6.80E-05
6.593,-6.77E-05
6.594,-6.75E-05
6.595,-6.70E-05
6.596,-6.76E-05
6.597,-6.99E-05
6.598,-7.09E-05
6.599,-7.20E-05
6.6,-6.99E-05
6.601,-6.74E-05
6.602,-6.84E-05
6.603,-6.81E-05
6.604,-6.47E-05
6.605,-5.87E-05
6.606,-5.45E-05
6.607,-4.87E-05
6.608,-4.19E-05
6.609,-3.88E-05
6.61,-3.46E-05
6.611,-2.87E-05
6.612,-2.43E-05
6.613,-1.92E-05
6.614,-1.32E-05
6.615,-1.06E-05
6.616,-7.72E-06
6.617,-5.44E-06
6.618,-4.15E-06
6.619,-1.71E-06
6.62,-1.69E-07
6.621,-7.61E-07
6.622,-2.79E-06
6.623,-3.97E-06
6.624,-5.90E-06
6.625,-7.38E-06
6.626,-6.46E-06
6.627,-8.37E-06
6.628,-1.31E-05
6.629,-1.34E-05
6.63,-1.41E-05
6.631,-1.67E-05
6.632,-1.82E-05
6.633,-1.82E-05
6.634,-1.89E-05
6.635,-2.08E-05
6.636,-2.09E-05
6.637,-2.13E-05
6.638,-2.09E-05
6.639,-2.20E-05
6.64,-2.37E-05
6.641,-2.56E-05
6.642,-2.69E-05
6.643,-2.84E-05
6.644,-2.93E-05
6.645,-2.90E-05
6.646,-3.07E-05
6.647,-3.19E-05
6.648,-3.26E-05
6.649,-3.08E-05
6.65,-3.01E-05
6.651,-3.46E-05
6.652,-4.04E-05
6.653,-4.12E-05
6.654,-4.26E-05
6.655,-4.45E-05
6.656,-4.14E-05
6.657,-4.11E-05
6.658,-4.18E-05
6.659,-3.96E-05
6.66,-3.82E-05
6.661,-3.74E-05
6.662,-3.51E-05
6.663,-3.30E-05
6.664,-3.36E-05
6.665,-3.18E-05
6.666,-3.07E-05
6.667,-2.99E-05
6.668,-2.54E-05
6.669,-2.21E-05
6.67,-2.06E-05
6.671,-1.92E-05
6.672,-1.74E-05
6.673,-1.60E-05
6.674,-1.38E-05
6.675,-1.20E-05
6.676,-1.42E-05
6.677,-1.45E-05
6.678,-1.24E-05
6.679,-1.08E-05
6.68,-7.90E-06
6.681,-7.12E-06
6.682,-7.18E-06
6.683,-7.11E-06
6.684,-7.13E-06
6.685,-5.16E-06
6.686,-3.93E-06
6.687,-2.33E-06
6.688,-3.00E-06
6.689,-5.43E-06
6.69,-6.13E-06
6.691,-6.40E-06
6.692,-5.54E-06
6.693,-5.63E-06
6.694,-5.97E-06
6.695,-8.64E-06
6.696,-9.71E-06
6.697,-6.85E-06
6.698,-7.04E-06
6.699,-8.54E-06
6.7,-1.01E-05
6.701,-1.29E-05
6.702,-1.44E-05
6.703,-1.49E-05
6.704,-1.54E-05
6.705,-1.51E-05
6.706,-1.67E-05
6.707,-1.95E-05
6.708,-2.02E-05
6.709,-2.10E-05
6.71,-2.17E-05
6.711,-2.23E-05
6.712,-2.27E-05
6.713,-2.35E-05
6.714,-2.39E-05
6.715,-2.36E-05
6.716,-2.80E-05
6.717,-3.01E-05
6.718,-2.92E-05
6.719,-2.91E-05
6.72,-2.83E-05
6.721,-2.94E-05
6.722,-2.93E-05
6.723,-2.82E-05
6.724,-2.89E-05
6.725,-2.88E-05
6.726,-2.75E-05
6.727,-2.73E-05
6.728,-2.84E-05
6.729,-2.91E-05
6.73,-2.87E-05
6.731,-2.97E-05
6.732,-3.03E-05
6.733,-2.86E-05
6.734,-2.61E-05
6.735,-2.54E-05
6.736,-2.47E-05
6.737,-2.34E-05
6.738,-2.31E-05
6.739,-2.01E-05
6.74,-1.65E-05
6.741,-1.44E-05
6.742,-1.28E-05
6.743,-1.16E-05
6.744,-1.09E-05
6.745,-1.05E-05
6.746,-6.28E-06
6.747,-5.18E-06
6.748,-7.44E-06
6.749,-4.40E-06
6.75,-5.00E-06
6.751,-6.16E-06
6.752,-8.01E-06
6.753,-1.02E-05
6.754,-6.33E-06
6.755,-5.32E-06
6.756,-5.93E-06
6.757,-5.59E-06
6.758,-3.52E-06
6.759,-2.07E-06
6.76,-3.28E-06
6.761,-1.73E-06
6.762,1.75E-06
6.763,3.22E-06
6.764,2.14E-06
6.765,2.00E-06
6.766,2.51E-06
6.767,1.48E-06
6.768,5.38E-07
6.769,1.40E-06
6.77,1.60E-06
6.771,1.16E-06
6.772,1.10E-06
6.773,1.22E-06
6.774,1.82E-06
6.775,1.39E-06
6.776,3.19E-07
6.777,9.00E-08
6.778,8.90E-07
6.779,4.11E-07
6.78,-8.45E-07
6.781,-2.27E-06
6.782,-2.75E-06
6.783,-3.15E-06
6.784,-4.65E-06
6.785,-5.42E-06
6.786,-5.42E-06
6.787,-6.43E-06
6.788,-7.62E-06
6.789,-7.69E-06
6.79,-8.42E-06
6.791,-7.42E-06
6.792,-7.00E-06
6.793,-6.26E-06
6.794,-4.72E-06
6.795,-3.91E-06
6.796,-4.33E-06
6.797,-5.91E-06
6.798,-3.97E-06
6.799,-4.14E-06
6.8,-4.03E-06
6.801,-6.68E-08
6.802,-5.75E-07
6.803,-3.07E-06
6.804,-2.97E-06
6.805,-3.56E-06
6.806,-4.36E-06
6.807,-3.43E-06
6.808,-2.94E-06
6.809,-5.05E-06
6.81,-6.11E-06
6.811,-4.17E-06
6.812,-5.16E-06
6.813,-6.15E-06
6.814,-5.61E-06
6.815,-4.22E-06
6.816,-1.50E-06
6.817,-1.87E-06
6.818,-1.80E-06
6.819,6.60E-07
6.82,3.13E-06
6.821,5.53E-06
6.822,8.50E-06
6.823,7.80E-06
6.824,4.60E-06
6.825,6.20E-06
6.826,7.53E-06
6.827,6.23E-06
6.828,6.26E-06
6.829,7.48E-06
6.83,6.44E-06
6.831,6.80E-06
6.832,7.98E-06
6.833,7.17E-06
6.834,7.35E-06
6.835,8.78E-06
6.836,1.02E-05
6.837,9.56E-06
6.838,9.39E-06
6.839,1.03E-05
6.84,1.15E-05
6.841,1.16E-05
6.842,1.11E-05
6.843,1.05E-05
6.844,7.36E-06
6.845,7.24E-06
6.846,5.45E-06
6.847,3.84E-06
6.848,5.75E-06
6.849,4.88E-06
6.85,3.43E-06
6.851,2.45E-06
6.852,2.82E-06
6.853,4.46E-06
6.854,5.43E-06
6.855,3.99E-06
6.856,3.80E-06
6.857,2.75E-06
6.858,-1.54E-07
6.859,-5.83E-07
6.86,-1.10E-06
6.861,-2.96E-06
6.862,-3.82E-06
6.863,-4.75E-06
6.864,-6.19E-06
6.865,-6.55E-06
6.866,-8.62E-06
6.867,-9.49E-06
6.868,-9.69E-06
6.869,-1.38E-05
6.87,-1.54E-05
6.871,-1.11E-05
6.872,-9.94E-06
6.873,-1.21E-05
6.874,-1.34E-05
6.875,-1.51E-05
6.876,-1.52E-05
6.877,-1.42E-05
6.878,-1.36E-05
6.879,-1.32E-05
6.88,-1.22E-05
6.881,-9.63E-06
6.882,-1.01E-05
6.883,-1.47E-05
6.884,-1.59E-05
6.885,-1.44E-05
6.886,-1.37E-05
6.887,-1.22E-05
6.888,-1.29E-05
6.889,-1.28E-05
6.89,-1.23E-05
6.891,-1.27E-05
6.892,-1.09E-05
6.893,-9.64E-06
6.894,-8.47E-06
6.895,-7.32E-06
6.896,-5.16E-06
6.897,-2.65E-06
6.898,-3.78E-06
6.899,-4.88E-06
6.9,-3.71E-06
6.901,-2.26E-06
6.902,-3.25E-07
6.903,-1.46E-06
6.904,-2.22E-06
6.905,-3.12E-06
6.906,-4.51E-06
6.907,-1.52E-06
6.908,-2.33E-06
6.909,-4.41E-06
6.91,-3.48E-06
6.911,-2.55E-06
6.912,-2.29E-06
6.913,-2.25E-06
6.914,-1.48E-06
6.915,-3.35E-07
6.916,4.54E-07
6.917,-1.33E-06
6.918,-1.67E-06
6.919,-3.46E-07
6.92,-8.20E-07
6.921,-8.42E-07
6.922,-5.68E-07
6.923,-2.56E-06
6.924,-9.92E-07
6.925,-5.61E-07
6.926,-3.68E-06
6.927,-4.66E-06
6.928,-5.56E-06
6.929,-6.30E-06
6.93,-6.72E-06
6.931,-8.65E-06
6.932,-1.17E-05
6.933,-1.03E-05
6.934,-7.34E-06
6.935,-8.08E-06
6.936,-9.67E-06
6.937,-9.45E-06
6.938,-1.01E-05
6.939,-1.29E-05
6.94,-1.38E-05
6.941,-1.30E-05
6.942,-1.27E-05
6.943,-1.41E-05
6.944,-1.57E-05
6.945,-1.69E-05
6.946,-1.73E-05
6.947,-1.64E-05
6.948,-1.69E-05
6.949,-1.69E-05
6.95,-1.62E-05
6.951,-1.62E-05
6.952,-1.63E-05
6.953,-1.42E-05
6.954,-1.43E-05
6.955,-1.64E-05
6.956,-1.18E-05
6.957,-9.14E-06
6.958,-1.03E-05
6.959,-1.37E-05
6.96,-1.46E-05
6.961,-1.10E-05
6.962,-1.03E-05
6.963,-1.14E-05
6.964,-1.34E-05
6.965,-1.27E-05
6.966,-1.20E-05
6.967,-1.32E-05
6.968,-1.32E-05
6.969,-1.31E-05
6.97,-1.19E-05
6.971,-1.02E-05
6.972,-1.07E-05
6.973,-8.52E-06
6.974,-6.54E-06
6.975,-6.30E-06
6.976,-5.22E-06
6.977,-3.60E-06
6.978,-1.90E-06
6.979,-2.90E-06
6.98,-4.04E-06
6.981,-3.78E-06
6.982,-2.47E-06
6.983,-3.11E-06
6.984,-3.69E-06
6.985,-2.51E-06
6.986,-2.52E-06
6.987,-2.26E-06
6.988,-1.77E-06
6.989,-9.99E-07
6.99,-9.67E-07
6.991,-2.39E-06
6.992,-2.46E-06
6.993,-2.15E-06
6.994,-2.44E-06
6.995,-2.47E-06
6.996,-2.91E-06
6.997,-4.42E-06
6.998,-5.37E-06
6.999,-6.37E-06
7,-6.92E-06
7.001,-6.73E-06
7.002,-6.93E-06
7.003,-4.05E-06
7.004,-3.51E-06
7.005,-5.61E-06
7.006,-6.07E-06
7.007,-6.76E-06
7.008,-6.16E-06
7.009,-6.25E-06
7.01,-9.11E-06
7.011,-1.01E-05
7.012,-1.09E-05
7.013,-9.19E-06
7.014,-8.09E-06
7.015,-1.12E-05
7.016,-1.09E-05
7.017,-1.21E-05
7.018,-1.17E-05
7.019,-8.59E-06
7.02,-1.20E-05
7.021,-1.48E-05
7.022,-1.51E-05
7.023,-1.61E-05
7.024,-1.69E-05
7.025,-1.67E-05
7.026,-1.66E-05
7.027,-1.74E-05
7.028,-1.81E-05
7.029,-1.65E-05
7.03,-1.63E-05
7.031,-1.61E-05
7.032,-1.45E-05
7.033,-1.48E-05
7.034,-1.38E-05
7.035,-1.28E-05
7.036,-1.30E-05
7.037,-1.33E-05
7.038,-1.37E-05
7.039,-1.31E-05
7.04,-1.44E-05
7.041,-1.55E-05
7.042,-1.50E-05
7.043,-1.32E-05
7.044,-1.10E-05
7.045,-9.56E-06
7.046,-8.49E-06
7.047,-7.56E-06
7.048,-5.70E-06
7.049,-4.61E-06
7.05,-3.76E-06
7.051,-1.17E-06
7.052,-1.36E-06
7.053,-2.56E-06
7.054,-3.12E-06
7.055,-3.16E-06
7.056,-1.59E-06
7.057,-7.51E-07
7.058,-7.09E-07
7.059,-9.58E-07
7.06,-9.27E-07
7.061,3.32E-07
7.062,2.05E-06
7.063,1.95E-06
7.064,2.09E-06
7.065,3.82E-06
7.066,2.84E-06
7.067,1.75E-07
7.068,-1.72E-08
7.069,3.67E-08
7.07,-2.78E-06
7.071,-3.11E-06
7.072,-4.82E-07
7.073,-2.19E-06
7.074,-5.34E-06
7.075,-3.69E-06
7.076,-8.05E-07
7.077,1.12E-06
7.078,2.81E-06
7.079,1.09E-06
7.08,2.09E-07
7.081,-8.41E-07
7.082,-1.94E-06
7.083,-1.22E-06
7.084,-3.63E-06
7.085,-6.28E-06
7.086,-8.49E-06
7.087,-9.02E-06
7.088,-9.35E-06
7.089,-1.20E-05
7.09,-1.32E-05
7.091,-1.32E-05
7.092,-1.44E-05
7.093,-1.71E-05
7.094,-1.80E-05
7.095,-1.76E-05
7.096,-1.88E-05
7.097,-1.99E-05
7.098,-2.01E-05
7.099,-2.27E-05
7.1,-2.87E-05
7.101,-2.68E-05
7.102,-2.00E-05
7.103,-2.20E-05
7.104,-2.00E-05
7.105,-1.80E-05
7.106,-1.71E-05
7.107,-1.21E-05
7.108,-1.06E-05
7.109,-7.40E-06
7.11,-6.74E-06
7.111,-3.93E-06
7.112,-3.34E-06
7.113,-4.41E-06
7.114,-3.90E-06
7.115,-6.64E-06
7.116,-5.79E-06
7.117,-5.08E-06
7.118,-5.03E-06
7.119,-2.38E-06
7.12,-1.55E-07
7.121,-8.24E-07
7.122,-3.04E-07
7.123,1.27E-06
7.124,2.75E-06
7.125,3.24E-06
7.126,6.85E-06
7.127,9.77E-06
7.128,7.24E-06
7.129,3.94E-06
7.13,2.68E-06
7.131,4.88E-06
7.132,5.64E-06
7.133,8.15E-06
7.134,9.93E-06
7.135,1.12E-05
7.136,1.40E-05
7.137,1.65E-05
7.138,1.90E-05
7.139,2.00E-05
7.14,2.12E-05
7.141,1.97E-05
7.142,1.82E-05
7.143,1.78E-05
7.144,1.48E-05
7.145,1.10E-05
7.146,9.13E-06
7.147,6.12E-06
7.148,3.02E-06
7.149,-4.83E-07
7.15,-3.63E-06
7.151,-6.41E-06
7.152,-1.07E-05
7.153,-9.93E-06
7.154,-1.15E-05
7.155,-1.55E-05
7.156,-1.75E-05
7.157,-1.70E-05
7.158,-1.61E-05
7.159,-2.07E-05
7.16,-2.44E-05
7.161,-2.60E-05
7.162,-2.53E-05
7.163,-2.52E-05
7.164,-2.52E-05
7.165,-2.52E-05
7.166,-2.54E-05
7.167,-2.34E-05
7.168,-2.46E-05
7.169,-2.52E-05
7.17,-2.46E-05
7.171,-2.34E-05
7.172,-2.34E-05
7.173,-2.57E-05
7.174,-2.56E-05
7.175,-2.75E-05
7.176,-3.02E-05
7.177,-3.00E-05
7.178,-2.88E-05
7.179,-2.77E-05
7.18,-2.80E-05
7.181,-2.73E-05
7.182,-2.42E-05
7.183,-2.16E-05
7.184,-1.87E-05
7.185,-1.61E-05
7.186,-1.53E-05
7.187,-1.43E-05
7.188,-1.36E-05
7.189,-1.27E-05
7.19,-1.04E-05
7.191,-8.16E-06
7.192,-7.07E-06
7.193,-5.45E-06
7.194,-1.46E-06
7.195,1.58E-06
7.196,4.29E-06
7.197,8.21E-06
7.198,1.12E-05
7.199,1.47E-05
7.2,1.75E-05
7.201,1.81E-05
7.202,1.95E-05
7.203,1.82E-05
7.204,1.69E-05
7.205,1.51E-05
7.206,1.20E-05
7.207,9.86E-06
7.208,7.34E-06
7.209,3.42E-06
7.21,8.71E-07
7.211,7.68E-07
7.212,-1.16E-06
7.213,-2.66E-06
7.214,-3.60E-06
7.215,-4.41E-06
7.216,-4.69E-06
7.217,-4.85E-06
7.218,-5.86E-06
7.219,-7.93E-06
7.22,-1.01E-05
7.221,-1.16E-05
7.222,-1.37E-05
7.223,-1.62E-05
7.224,-1.78E-05
7.225,-2.13E-05
7.226,-2.43E-05
7.227,-2.67E-05
7.228,-2.95E-05
7.229,-3.12E-05
7.23,-3.40E-05
7.231,-3.71E-05
7.232,-3.98E-05
7.233,-4.21E-05
7.234,-4.40E-05
7.235,-4.81E-05
7.236,-5.20E-05
7.237,-5.20E-05
7.238,-5.30E-05
7.239,-5.46E-05
7.24,-5.30E-05
7.241,-5.13E-05
7.242,-4.69E-05
7.243,-4.38E-05
7.244,-4.03E-05
7.245,-3.47E-05
7.246,-3.04E-05
7.247,-2.54E-05
7.248,-1.99E-05
7.249,-1.37E-05
7.25,-7.03E-06
7.251,-1.53E-06
7.252,5.02E-06
7.253,1.30E-05
7.254,2.34E-05
7.255,3.23E-05
7.256,3.87E-05
7.257,4.48E-05
7.258,5.02E-05
7.259,5.62E-05
7.26,5.98E-05
7.261,6.26E-05
7.262,6.55E-05
7.263,6.33E-05
7.264,6.17E-05
7.265,6.08E-05
7.266,5.78E-05
7.267,5.31E-05
7.268,4.75E-05
7.269,4.33E-05
7.27,4.07E-05
7.271,3.81E-05
7.272,3.67E-05
7.273,3.72E-05
7.274,3.87E-05
7.275,4.01E-05
7.276,4.23E-05
7.277,4.46E-05
7.278,4.46E-05
7.279,4.37E-05
7.28,3.94E-05
7.281,3.60E-05
7.282,3.51E-05
7.283,3.16E-05
7.284,2.75E-05
7.285,2.20E-05
7.286,1.75E-05
7.287,1.41E-05
7.288,9.01E-06
7.289,4.61E-06
7.29,8.12E-07
7.291,-3.82E-06
7.292,-8.91E-06
7.293,-1.35E-05
7.294,-1.87E-05
7.295,-2.47E-05
7.296,-3.18E-05
7.297,-3.84E-05
7.298,-4.27E-05
7.299,-4.63E-05
7.3,-4.99E-05
7.301,-5.22E-05
7.302,-5.31E-05
7.303,-5.57E-05
7.304,-5.81E-05
7.305,-5.90E-05
7.306,-6.09E-05
7.307,-6.02E-05
7.308,-5.91E-05
7.309,-6.02E-05
7.31,-5.90E-05
7.311,-5.96E-05
7.312,-5.85E-05
7.313,-5.63E-05
7.314,-5.71E-05
7.315,-5.65E-05
7.316,-5.62E-05
7.317,-5.59E-05
7.318,-5.59E-05
7.319,-5.56E-05
7.32,-5.34E-05
7.321,-5.63E-05
7.322,-5.46E-05
7.323,-5.05E-05
7.324,-5.37E-05
7.325,-5.27E-05
7.326,-5.10E-05
7.327,-5.11E-05
7.328,-4.99E-05
7.329,-4.69E-05
7.33,-4.35E-05
7.331,-4.07E-05
7.332,-3.61E-05
7.333,-2.98E-05
7.334,-2.39E-05
7.335,-2.20E-05
7.336,-1.65E-05
7.337,-9.74E-06
7.338,-6.22E-06
7.339,-2.93E-06
7.34,-1.98E-06
7.341,-1.53E-06
7.342,-2.68E-06
7.343,-3.22E-06
7.344,-4.38E-07
7.345,-4.07E-07
7.346,-2.63E-06
7.347,-6.45E-06
7.348,-9.13E-06
7.349,-8.18E-06
7.35,-6.53E-06
7.351,-8.31E-06
7.352,-9.68E-06
7.353,-1.06E-05
7.354,-1.49E-05
7.355,-1.52E-05
7.356,-1.42E-05
7.357,-1.62E-05
7.358,-1.83E-05
7.359,-1.97E-05
7.36,-2.29E-05
7.361,-2.48E-05
7.362,-2.47E-05
7.363,-2.61E-05
7.364,-2.62E-05
7.365,-2.56E-05
7.366,-2.58E-05
7.367,-2.66E-05
7.368,-2.66E-05
7.369,-2.83E-05
7.37,-2.79E-05
7.371,-2.66E-05
7.372,-2.80E-05
7.373,-2.70E-05
7.374,-2.89E-05
7.375,-3.02E-05
7.376,-3.13E-05
7.377,-3.06E-05
7.378,-2.75E-05
7.379,-2.83E-05
7.38,-2.67E-05
7.381,-2.83E-05
7.382,-2.81E-05
7.383,-2.60E-05
7.384,-2.56E-05
7.385,-2.45E-05
7.386,-2.51E-05
7.387,-2.35E-05
7.388,-2.24E-05
7.389,-2.27E-05
7.39,-1.87E-05
7.391,-1.55E-05
7.392,-1.18E-05
7.393,-7.00E-06
7.394,-6.51E-06
7.395,-7.52E-06
7.396,-7.49E-06
7.397,-3.16E-06
7.398,-3.04E-06
7.399,-2.41E-06
7.4,1.47E-06
7.401,1.27E-06
7.402,9.62E-07
7.403,8.18E-07
7.404,2.95E-07
7.405,3.27E-07
7.406,7.19E-07
7.407,-7.53E-07
7.408,-2.39E-07
7.409,2.93E-07
7.41,1.07E-06
7.411,4.23E-06
7.412,3.13E-06
7.413,-3.54E-07
7.414,-2.10E-06
7.415,-3.07E-06
7.416,-3.28E-06
7.417,-3.25E-06
7.418,-5.48E-06
7.419,-7.50E-06
7.42,-6.83E-06
7.421,-5.66E-06
7.422,-7.28E-06
7.423,-7.14E-06
7.424,-6.69E-06
7.425,-1.07E-05
7.426,-1.10E-05
7.427,-1.04E-05
7.428,-1.17E-05
7.429,-1.34E-05
7.43,-1.49E-05
7.431,-1.58E-05
7.432,-1.73E-05
7.433,-1.67E-05
7.434,-1.70E-05
7.435,-1.79E-05
7.436,-1.90E-05
7.437,-1.99E-05
7.438,-1.87E-05
7.439,-1.99E-05
7.44,-2.02E-05
7.441,-1.95E-05
7.442,-2.06E-05
7.443,-2.18E-05
7.444,-2.22E-05
7.445,-2.02E-05
7.446,-2.01E-05
7.447,-2.09E-05
7.448,-2.06E-05
7.449,-2.03E-05
7.45,-1.86E-05
7.451,-1.80E-05
7.452,-1.81E-05
7.453,-1.67E-05
7.454,-1.59E-05
7.455,-1.42E-05
7.456,-1.19E-05
7.457,-1.08E-05
7.458,-9.72E-06
7.459,-8.37E-06
7.46,-7.78E-06
7.461,-7.12E-06
7.462,-6.04E-06
7.463,-5.80E-06
7.464,-4.58E-06
7.465,-3.96E-06
7.466,-3.76E-06
7.467,-3.21E-06
7.468,-3.18E-06
7.469,4.73E-07
7.47,2.48E-06
7.471,7.75E-08
7.472,-6.54E-07
7.473,1.08E-06
7.474,1.41E-06
7.475,1.50E-06
7.476,2.13E-06
7.477,2.48E-06
7.478,2.85E-06
7.479,3.61E-06
7.48,3.20E-06
7.481,5.02E-06
7.482,6.43E-06
7.483,4.37E-06
7.484,6.24E-06
7.485,7.74E-06
7.486,7.96E-06
7.487,8.63E-06
7.488,8.10E-06
7.489,8.05E-06
7.49,8.42E-06
7.491,6.67E-06
7.492,4.49E-06
7.493,4.28E-06
7.494,2.63E-06
7.495,2.14E-06
7.496,3.03E-06
7.497,4.23E-06
7.498,6.70E-06
7.499,6.30E-06
7.5,6.04E-06
7.501,5.14E-06
7.502,6.81E-06
7.503,7.12E-06
7.504,3.61E-06
7.505,4.32E-06
7.506,5.47E-06
7.507,5.13E-06
7.508,2.70E-06
7.509,1.05E-06
7.51,2.57E-07
7.511,-2.19E-07
7.512,-7.59E-07
7.513,-7.69E-08
7.514,2.59E-06
7.515,2.77E-06
7.516,2.79E-06
7.517,3.38E-06
7.518,4.07E-06
7.519,4.33E-06
7.52,3.55E-06
7.521,3.45E-06
7.522,3.58E-06
7.523,2.58E-06
7.524,2.34E-06
7.525,2.50E-06
7.526,2.21E-06
7.527,3.39E-06
7.528,3.91E-06
7.529,3.97E-06
7.53,3.99E-06
7.531,3.53E-06
7.532,3.83E-06
7.533,4.85E-06
7.534,6.37E-06
7.535,7.10E-06
7.536,8.57E-06
7.537,8.84E-06
7.538,6.37E-06
7.539,7.22E-06
7.54,6.25E-06
7.541,5.37E-06
7.542,7.50E-06
7.543,8.51E-06
7.544,1.01E-05
7.545,1.15E-05
7.546,1.31E-05
7.547,1.33E-05
7.548,1.33E-05
7.549,1.41E-05
7.55,1.44E-05
7.551,1.52E-05
7.552,1.51E-05
7.553,1.55E-05
7.554,1.52E-05
7.555,1.54E-05
7.556,1.85E-05
7.557,1.81E-05
7.558,1.54E-05
7.559,1.58E-05
7.56,1.67E-05
7.561,1.72E-05
7.562,1.81E-05
7.563,1.82E-05
7.564,1.86E-05
7.565,1.82E-05
7.566,1.77E-05
7.567,1.63E-05
7.568,1.48E-05
7.569,1.39E-05
7.57,1.14E-05
7.571,1.04E-05
7.572,1.02E-05
7.573,1.04E-05
7.574,1.05E-05
7.575,1.04E-05
7.576,1.10E-05
7.577,1.10E-05
7.578,1.04E-05
7.579,1.04E-05
7.58,1.06E-05
7.581,8.57E-06
7.582,5.63E-06
7.583,3.63E-06
7.584,3.27E-06
7.585,4.26E-07
7.586,-3.92E-06
7.587,-5.51E-06
7.588,-4.70E-06
7.589,-3.47E-06
7.59,-3.35E-06
7.591,-5.98E-06
7.592,-6.01E-06
7.593,-3.61E-06
7.594,-5.04E-06
7.595,-5.62E-06
7.596,-6.88E-06
7.597,-5.71E-06
7.598,-4.86E-06
7.599,-7.49E-06
7.6,-7.84E-06
7.601,-6.35E-06
7.602,-6.88E-06
7.603,-6.50E-06
7.604,-5.12E-06
7.605,-9.25E-06
7.606,-8.24E-06
7.607,-3.66E-06
7.608,-4.98E-06
7.609,-5.24E-06
7.61,-3.00E-06
7.611,-1.88E-06
7.612,-2.47E-06
7.613,-3.36E-06
7.614,-2.80E-06
7.615,-2.12E-06
7.616,-3.08E-06
7.617,-2.83E-06
7.618,-1.33E-06
7.619,-8.15E-08
7.62,5.01E-07
7.621,1.08E-06
7.622,1.59E-06
7.623,2.58E-06
7.624,3.98E-06
7.625,3.64E-06
7.626,4.71E-06
7.627,6.50E-06
7.628,5.41E-06
7.629,4.66E-06
7.63,6.01E-06
7.631,4.41E-06
7.632,5.99E-06
7.633,8.10E-06
7.634,5.45E-06
7.635,2.94E-06
7.636,-6.51E-07
7.637,2.73E-06
7.638,9.35E-06
7.639,8.15E-06
7.64,4.20E-06
7.641,3.38E-06
7.642,3.88E-06
7.643,3.52E-06
7.644,3.34E-06
7.645,1.40E-06
7.646,-1.95E-06
7.647,-3.85E-06
7.648,-4.15E-06
